0,1.0,-0.066864829,-2.5305013,-3.570897,-4.3142768,-4.0526909,-3.2631727,-2.2006371,-1.7953888,-1.3106552,-0.45690583,-0.43709679,-0.41414548,-0.30961705,-0.38694174,-0.42494486,-0.32260084,-0.31944502,-0.43912844,-0.40831234,-0.48049706,-0.32205051,-0.37511157,-0.48157664,-0.46149198,-0.44925463,-0.51893444,-0.537815,-0.52056197,-0.65642372,-0.6240165,-0.67004817,-0.69770459,-0.86985072,-0.7878053,-0.75869789,-0.86340251,-0.81534666,-0.80067896,-0.82486264,-0.7776166,-0.7638407,-0.73277188,-0.57184277,-0.49733615,-0.40638872,-0.17913339,-0.18115451,-0.15212706,-0.042035975999999996,0.015090786,0.012129957,0.10997978,0.1980184,0.12266429,0.09432050300000001,0.21520622,0.21562469,0.21796711,0.26787329,0.34508526,0.33052309,0.32434827,0.47924384,0.42163825,0.37861834,0.41341305,0.40613867,0.54767238,0.47322916,0.64665295,0.54027975,0.52533027,0.56756929,0.57918917,0.59478613,0.5843387,0.58741695,0.54310006,0.58745086,0.52820936,0.50132542,0.49183819,0.45219363,0.48049765,0.47003463,0.44561814,0.41468441,0.40907181,0.41896345,0.32561319,0.44027209,0.41015417,0.36302097,0.36105526,0.36796643,0.3973305,0.38271106,0.36617864,0.4891948,0.73397616,0.99642964,1.3165055,1.4018382999999999,1.5073365,1.7542157999999999,2.0525301,2.0108121,1.9361771,1.8046488999999997,1.5955763,1.3636004,1.0055404000000001,0.85533035,0.41531631,0.018789237,-0.18290031,-0.24918838,-0.19534601,-0.19186407,-0.22264432,-0.23522483,-0.30441243,-0.35413389,-0.20900497,-0.18728581,-0.29883779,-0.21470693,-0.1492489,-0.098620254,-0.024392856,0.58911467,1.1927632,1.2051465000000001,1.254446,1.0120732,0.57300218,0.23205829,0.60980119,1.1144281999999999,-1.4498758
1,1.0,-0.64593065,-2.139559,-2.6862014,-2.9020368999999997,-2.5884071,-2.2297661,-1.5252497999999999,-0.44008002,-0.36314993,-0.054361894,0.36686742,0.2874349,0.64033192,0.77484244,0.26154238,0.38001443,0.82061794,0.47173908,0.35233852,0.51089883,0.52983116,0.62028564,0.81535605,0.47314188,0.15161775,0.60391413,0.60334721,0.2768018,0.15297629,0.011367927,0.31506628,0.98242476,1.0165614,0.79259193,0.33497888,0.60072033,0.80700469,0.42813977,0.28902174,-0.21156609,-0.10981738,0.82888608,0.73433947,0.32873382,0.58132768,1.0116608,1.0312359,0.62956561,0.28925039,0.68774479,0.8134917,0.61538155,0.60273867,0.3696753,0.010374468000000001,0.31719425,0.83558336,0.9263061,0.86593536,0.52382248,0.41694174,0.46836722,0.27472636,0.15848746,0.41923227,0.62421008,0.67488972,0.26460313,0.28269678,0.77209396,0.9100148,0.896569,0.63541016,0.48641488,0.26617923,-0.13218548,0.18104626,0.62276003,0.38718801,0.29698398,0.16244439,0.30461664,0.86369984,0.70261024,0.4352865,0.20986673,0.29816646,0.53890535,0.48510024,0.60830235,0.59263361,0.12242898,0.084403122,0.46619086,0.78770114,0.86087283,0.57971533,0.85561966,1.7749854,1.9017662,1.7183803,1.5600742,1.2974885,0.47355441,0.30203435,0.79558387,0.52690662,0.35622079,-0.033082067,-0.72451728,-0.67218795,-0.65129994,-0.81113445,-1.0043011,-1.1259758999999998,-1.3674518999999998,-1.43153,-1.3295918,-1.1659305,-1.4310346,-1.9170063000000002,-1.4453896000000002,-1.1241735000000002,-1.2863178,-1.4714441,-1.4151462,-1.3492044,-1.2336586,-0.67993218,-0.16357816,-0.38624766,-0.55415388,-0.97285204,-1.6346916,-1.7860572000000001,-1.9604354,-1.7892384999999997,-1.4927986999999998,-1.8062962,-3.1344281
2,1.0,-1.4292937,-2.7940758999999997,-3.38159,-4.0369455,-3.9898896,-3.6460392,-2.9183972999999996,-1.7270041,-1.2715263,-1.1837072,-0.60871186,-0.20467545,-0.26361155,-0.24816615,-0.26313883,-0.34482588,-0.32353901,-0.25869616,-0.26047917,-0.21043611,-0.25933787,-0.23602995,-0.27073548,-0.43026687,-0.30879204,-0.20489027,-0.38004308,-0.3722152,-0.34136404,-0.32047111,-0.33598838,-0.35455976,-0.35426896,-0.30767165,-0.32050145,-0.38492491,-0.35625335,-0.31010253,-0.27035854,-0.23398161,-0.25583172,-0.3191407,-0.049631817,-0.041815691,-0.040653211,-0.08043333400000001,0.022408921000000002,0.1488239,0.092823585,0.18174918,0.098013591,0.046376165999999996,0.22140328,0.19150197,0.022976752000000003,0.038914614,0.043754344,0.17527014,0.09720504199999999,0.04593271,0.042085054000000004,-0.013081278,-0.045982084000000006,-0.022573417999999998,0.068576627,0.1109067,0.13900278,0.15327414,0.07141863700000001,0.08131906900000001,0.15110039,0.11994912,0.40831102,0.38514584,0.31858667,0.46639088,0.33282245,0.43346198,0.48617782,0.52673396,0.63071755,0.59885829,0.71039803,0.67260679,0.54035187,0.54717858,0.54860924,0.64383067,0.53916739,0.50935435,0.42902263,0.43672085,0.7122034,0.90832192,1.0620855,0.98308721,1.0184010000000001,1.2918336000000001,1.5118274,1.7602593,1.942825,1.8511681,1.8713645,1.8129383999999997,1.5845786,1.4033038999999998,1.3573591999999999,1.1092143,0.76622878,0.45942716,0.07091852400000001,-0.17973661,-0.24571515,-0.27637682,-0.13335644,-0.11041801,-0.16951529,-0.27312591,-0.34528966,-0.050816553,-0.13525369,-0.1607015,-0.17968297,-0.22836293,-0.12870403,-0.099210825,0.090072685,0.27501828,0.66407705,1.4369922,1.6523531000000002,1.5058344,1.2604567,0.70842347,0.2147058,-0.43215543,-0.98302105,-1.328789,-0.72476066,-1.0428711
3,1.0,-1.6464979,-3.7380942000000004,-3.742831,-3.5355684999999997,-3.0323229,-1.8695973999999997,-0.48906322,-0.16722018,0.51687051,1.1535699,1.2208896,1.1697491000000002,1.2619214,1.2209629,1.1473333000000001,1.1460602,1.0925118999999999,1.0511776000000002,0.88724115,0.85745509,0.90194082,0.88445004,0.84023583,0.79671593,0.7140268,0.61621598,0.54279755,0.48956255,0.43994265,0.38844216,0.12304846,0.079752602,0.12166471,0.0073123503,0.0058683968999999996,-0.015904995,-0.075597548,0.016073709,0.037256671,0.1021027,-0.020879691000000002,0.065130863,0.16267811,0.21633639,0.31985706,0.38300633,0.35487492,0.53553757,0.45304138,0.53163693,0.49469441,0.54651165,0.5666061,0.48813624,0.29512983,0.26687465,0.27396379,0.24385576,0.3828942,0.34836591,0.47312268,0.38937852,0.28967997,0.2400995,0.2111494,0.19193143,0.23104919,0.25761334,0.39378945,0.31649244,0.37078828,0.3664723,0.32245936,0.35445284,0.38627829,0.3944491,0.35506457,0.39983305,0.43864211,0.44071927,0.35240016,0.28952259,0.22659077,0.15094226,0.31307489,0.20596234,0.13614673,0.10915349,-0.028045367999999998,0.044094449,-0.12103318,-0.059281369,-0.06607435099999999,-0.016114585,0.19764814,0.44485449,0.62291902,0.78456162,0.86219111,0.85219488,1.1504453000000001,1.3887656000000002,1.3690961000000001,1.3782362,1.1854898999999999,0.86761953,0.79738409,0.46320554,0.17815779,-0.10197313,-0.59028388,-0.90842661,-1.166073,-1.3419285,-1.2218931,-1.2544071,-1.2550088,-1.173951,-1.2386518999999998,-1.3172049,-1.2769145,-1.3959475000000001,-1.321013,-1.3793276,-1.3957928999999998,-1.5021846,-1.3112771,-0.99053008,-0.41091047,-0.077691521,-0.23531057,-0.1337174,0.024959343999999998,0.045702352,-0.14318525,-0.54686647,-0.27690883,-0.35271178,-1.1191487,-3.9637016000000003
4,1.0,-0.60212321,-3.5640282,-4.380252099999999,-4.481508,-4.288905799999999,-3.7349301,-2.2814162000000002,-1.1612797,-1.0767611000000001,-0.3945785,-0.10495919,-0.10747895,-0.11173323,-0.10258616,-0.1301034,-0.11054595,-0.23803434,-0.092437466,-0.14676553,-0.20943321,-0.074256928,-0.21435717,-0.15507149,-0.17384184,-0.33352545,-0.25512054,-0.37475327,-0.35057024,-0.40824617,-0.43823492,-0.44179691,-0.44914448,-0.51515587,-0.58281102,-0.47604388,-0.43135363,-0.55938583,-0.50268798,-0.35402821,-0.40406077,-0.38390233,-0.23967563,-0.11971713,-0.20489583,-0.070728618,0.022430411,0.10950168,0.20109617,0.19341272,0.20511675,0.11318841,0.12999917,0.13749912,0.070996901,0.12363406,0.078854941,0.07717252599999999,0.15128265,0.12411893,0.15880571,0.1979225,0.12963069,0.18840691,0.19161288,0.20909842,0.19520149,0.33072216,0.31942168,0.35217343,0.49963472,0.4585212,0.48334855,0.56428065,0.51181314,0.54610807,0.52934798,0.61746779,0.53283925,0.47100138,0.51881432,0.43497303,0.4385718,0.36564828,0.30359274,0.33663667,0.27774004,0.3742838,0.35561094,0.32616326,0.34712339,0.17741825,0.27088363,0.32256967,0.36876354,0.34421261,0.40486504,0.69023795,0.81531588,1.0491671999999999,1.2837489,1.4243008,1.5335085,1.8043953999999998,1.9648477999999998,1.87142,1.6588525,1.4350203000000001,1.3526231000000002,1.0312209,0.73535999,0.36705961,0.04947856900000001,-0.27783965,-0.36734025,-0.4111517,-0.31146957,-0.38605204,-0.44912237,-0.25887919,-0.36622244,-0.44484492,-0.30785503,-0.33871846,-0.34546903,-0.33645255,-0.37645889,-0.47926766,-0.32538895,-0.13256871,0.14167003,0.78491904,0.95579242,1.1269551000000002,1.1763936000000002,1.0424959,0.86372895,0.69871585,0.32595983,0.8647268,-0.49312097
5,1.0,-1.6127326000000002,-3.9088910000000006,-4.0584346,-4.2093921,-3.6095989,-2.5326188,-1.9532583,-1.6683408,-0.97448447,-0.62001614,-0.54558869,-0.58082449,-0.57498375,-0.59292709,-0.55555919,-0.55296125,-0.50566905,-0.44267571,-0.47826761,-0.49278277,-0.52277826,-0.50676574,-0.58874256,-0.64561895,-0.59926901,-0.66319501,-0.60057824,-0.71405757,-0.73153568,-0.71544354,-0.72921288,-0.77029688,-0.70192134,-0.69720008,-0.82331883,-0.77632345,-0.77671961,-0.65172514,-0.59509813,-0.56703379,-0.50348878,-0.43339839,-0.37055285,-0.26892357,-0.23563797,-0.16472273,-0.11609076,-0.14416342,-0.036226371,0.14189599,0.037817916,0.12069159,0.02472906,0.11811682,0.1470567,0.19121229,0.11067482,0.13032212,0.18304505,0.2308448,0.39768204,0.27474473,0.25549889,0.29643507,0.27769318,0.32769492,0.37848223,0.49224102,0.55634465,0.60941838,0.47500683,0.55822321,0.62514665,0.54104894,0.46732496,0.62235016,0.69991467,0.61315393,0.67792069,0.59747027,0.51240068,0.50689258,0.60076262,0.53180465,0.5183365,0.47681321,0.44641955,0.51257958,0.39078635,0.4743024,0.40955899,0.38399933,0.34273055,0.42069439,0.37462385,0.37065533,0.48311165,0.51595783,0.6563101,0.8586228,1.0406772,1.1964161,1.249651,1.5212543,1.8016276999999998,1.7751691000000003,1.6335969,1.5181156,1.3794813999999997,1.1791971,0.97588806,0.77017622,0.29694549,0.048431665,-0.035658174,-0.13183445,-0.086249842,-0.16321768,-0.081648702,-0.12846134,-0.07581613,-0.13451292,-0.16057751,-0.09050751300000001,-0.1213257,0.036797527999999996,-0.078432443,-0.1238945,0.091747527,0.36853486,1.0490148000000001,1.6302501,1.5981473999999998,1.7113512,1.615613,0.92522086,0.28151016,0.035480452,0.78092914,0.053393439
6,1.0,-0.98285723,-2.8446092999999997,-3.7425212,-4.2877567,-4.0210644,-3.3453777999999996,-2.2745767999999997,-1.6455202000000002,-1.3828986,-0.87491026,-0.34452847,-0.21517814,-0.27227716,-0.20392431,-0.27645196,-0.27702106,-0.1887907,-0.26013005,-0.26202483,-0.31548509,-0.3366805,-0.24143732,-0.26863719,-0.34816437,-0.39943845,-0.4706084,-0.49894446,-0.55208125,-0.64426282,-0.5466003,-0.67924013,-0.57954006,-0.63879703,-0.68601248,-0.74408573,-0.65251332,-0.62438682,-0.69874307,-0.62182916,-0.53823374,-0.48149152,-0.34070539,-0.32559262,-0.28523207,-0.15970242,-0.08479590099999999,-0.0094815247,0.04929539,-0.040734032999999996,-0.04977333900000001,0.071475278,0.10260085,0.11437101,0.09876827699999999,0.18248111,0.15226434,0.08312823700000001,0.10471246,0.14509612,0.18043271,0.19080152,0.23522739,0.1538544,0.13801012,0.37142678,0.32204325,0.27367268,0.40647607,0.43130374,0.45378797,0.56814039,0.55206515,0.58421683,0.61676672,0.71545409,0.6013192,0.62319299,0.63688069,0.61552069,0.57872866,0.58272359,0.56048444,0.53582551,0.59491985,0.42938996,0.44396016,0.50455656,0.5404676,0.42537623,0.35559093,0.37570883,0.30690559,0.35117427,0.42124055,0.4730627,0.5087364,0.74047566,0.80338707,0.92764611,1.1344466999999998,1.4448518999999997,1.7421959999999999,2.0247862000000003,2.0484459,2.1505875,1.8603976999999998,1.6480457999999998,1.5454137,1.2407591999999998,0.85465087,0.39988051,0.058457855,-0.090558408,-0.28400593,-0.34097273,-0.29675717,-0.39429857,-0.42279493,-0.42486501,-0.50939892,-0.43737267,-0.4646437,-0.52239579,-0.46548447,-0.44669644,-0.48530121,-0.39992782,-0.29471608,-0.14764538,0.22747502,0.80929197,0.85897246,0.96141565,1.1516799,1.1745638999999999,0.88863043,0.6919529,0.88514481,1.1985336000000002,-0.2422427
7,1.0,1.6631984,-0.081415901,-1.9733304,-3.2095621,-4.202891200000001,-3.8352128,-2.6265529,-1.8721957999999999,-1.7408417,-0.70849539,-0.063054661,-0.10755598,-0.093926348,-0.10498804,-0.10461551,-0.2209226,-0.16644255,-0.26572361,-0.16932433,-0.24352467,-0.3873568,-0.28972787,-0.24138085,-0.41843997,-0.45972264,-0.5492996,-0.57391049,-0.72793562,-0.89012912,-0.81837361,-0.94734768,-0.89410442,-1.0164719000000002,-1.0409017,-1.0731465,-1.1013104999999999,-1.1055968999999999,-1.0995913999999998,-1.0140444,-0.900697,-0.82318932,-0.85134077,-0.87475315,-0.65079976,-0.60940945,-0.47958248,-0.30078733,-0.33087866,-0.14955937,-0.12101496,-0.18397553,-0.026155159,0.10167075,0.15208056,0.1357451,0.17420902,0.13302261,0.26928017,0.20011447,0.19393085,0.26813201,0.21299027,0.35415321,0.31061188,0.25994769,0.30224048,0.4431912,0.39219343,0.52572864,0.4982677,0.57532273,0.66938305,0.62095525,0.61854162,0.58912273,0.6976691,0.6807086,0.72994059,0.62092466,0.62802553,0.69246566,0.67758349,0.62393797,0.52577787,0.65367528,0.4392489,0.55432596,0.53173253,0.42881718,0.50495857,0.52453077,0.38137061,0.31830513,0.43457335,0.37749539,0.35306486,0.38525802,0.304669,0.35404773,0.4829472,0.9628789,1.1017188,1.182493,1.2833315,1.5008493,1.7082127,2.1791592,2.2686975,1.9819255,1.8582271000000001,1.7109467,1.5818251,1.1211833999999998,0.72289675,0.24061068,-0.3596578,-0.3926389,-0.49406682,-0.47180419,-0.46947297,-0.56434748,-0.60289624,-0.71037001,-0.5695091,-0.58681589,-0.59086939,-0.54401318,-0.59959688,-0.55272382,-0.59771375,-0.45501619,-0.187241,0.3920608,0.45022803,1.0061961,1.0922450000000001,1.303057,1.1500968999999999,0.7904415,1.3308959999999999
8,1.0,-0.37662815,-2.3717175999999998,-3.702464,-4.7141322,-4.4811803,-4.0664858,-3.0557043,-1.7239284,-1.3404822,-0.88808482,-0.28788032,-0.044368113,-0.015829368,-0.031604016,-0.060399012,-0.074791829,-0.068207145,-0.13917939,-0.16429409,-0.099565835,-0.13140201,-0.15436926,-0.19347441,-0.099135275,-0.13693659,-0.17084024,-0.23166745,-0.1556743,-0.11420033,-0.18521459,-0.29845467,-0.2440923,-0.16583523,-0.18592044,-0.32006,-0.26332796,-0.31427496,-0.18083463,-0.16140281,-0.13169437,-0.065078528,-0.046746703,-0.068499931,0.061586685999999995,0.14270879,0.19174016,0.27933442,0.31827579,0.34733699,0.3014214,0.34674205,0.36574704,0.27701828,0.22918017,0.25305901,0.21198245,0.16374073,0.23963182,0.31363385,0.16133332,0.18263455,0.22075787,0.21376145,0.24353115,0.20071645,0.1193935,0.20091332,0.28834549,0.39844059,0.32699105,0.41912749,0.43600129,0.49794318,0.47683775,0.54120816,0.56604302,0.52697386,0.46948755,0.45471114,0.47284188,0.45680158,0.4023589,0.34977933,0.39681456,0.39871399,0.31502481,0.3341514,0.29393265,0.30276166,0.34650014,0.4388195,0.48176329,0.27465799,0.33562077,0.4897017,0.6402738,0.94031744,1.0077406999999998,1.077373,1.2094205,1.5526206,1.8026311000000002,1.8365150000000001,1.8843928,1.9620787,1.7838348000000002,1.4720396,1.2161414,0.96734211,0.65758378,0.23932898,-0.13356672,-0.39512363,-0.54064206,-0.55987286,-0.44427521,-0.58887343,-0.60231434,-0.61123478,-0.50846507,-0.47129189,-0.59314079,-0.62442553,-0.62802689,-0.57767163,-0.52394987,-0.55650915,-0.3599516,-0.21090621,0.4159566,0.70806103,0.68322913,0.7451047,0.55340059,0.32676545,-0.050752947,-0.09951023699999999,0.44767721,0.71399636,-1.1157926
9,1.0,-0.18085318,-2.1177382000000002,-3.461901,-4.5626133,-4.2817276,-3.4807932,-2.4741458,-1.741466,-1.5736431999999998,-0.99202823,-0.49803389,-0.44734052,-0.50687858,-0.53929866,-0.38706602,-0.39784246,-0.51809517,-0.45998182,-0.48916597,-0.4023157,-0.35670006,-0.45561379,-0.48571692,-0.39604083,-0.35763288,-0.47345446,-0.50968802,-0.49781659,-0.57609929,-0.51972143,-0.56907141,-0.57731069,-0.61808061,-0.63666639,-0.69841058,-0.70475931,-0.64685387,-0.66001002,-0.56387392,-0.56716947,-0.53911443,-0.45904255,-0.35721048,-0.31826326,-0.2557719,-0.23234725,-0.12453202,-0.056024559,0.048000035,0.06702891,0.053811503,0.026262367000000002,0.081164252,0.11807386,-0.0010400011999999999,0.04252631900000001,0.0043271613,0.074689947,0.12852364,0.21276082,0.14760874,0.20202045,0.17514486,0.2166843,0.25934357,0.21011934,0.33640787,0.33139877,0.41573284,0.49369465,0.52612274,0.5281083,0.60922809,0.63817088,0.67926004,0.68400204,0.68169728,0.61383037,0.75366948,0.66776059,0.63827735,0.64596053,0.56566062,0.61103295,0.51987158,0.49083213,0.49197685,0.45845177,0.46788411,0.42722695,0.43280566,0.46572122,0.48461242,0.60915573,0.60152567,0.7863918,1.0306396999999998,1.1117659,1.3213003,1.5049971000000002,1.6374946000000001,1.8602418,1.8002551,1.7890336,1.6656144,1.4956006000000002,1.2977809,1.0256596,0.76704092,0.39214778,-0.020144203,-0.17736495,-0.08459881300000001,-0.26883226,-0.21650353,-0.25101358,-0.24453673,-0.25747259,-0.25302788,-0.24288298,-0.23159261,-0.19623243,-0.21585073,-0.22400064,-0.18755087,-0.19612229,-0.04479098,0.11232906,0.63686393,0.99640494,0.87961668,0.84280721,0.8592368,0.70481109,0.56737181,0.70500577,1.2655878,1.5797562,0.77245992,-1.3069013
10,1.0,0.073007146,-1.8719446,-3.2690441000000003,-4.5459419,-4.4140012,-3.5205637000000003,-2.4121033,-1.7567843,-1.4948638,-0.69954209,-0.32193357,-0.34292944,-0.29017964,-0.29847499,-0.33147709,-0.34988751,-0.34636714,-0.25305302,-0.27644377,-0.33461825,-0.24246611,-0.23136172,-0.41735051,-0.41327604,-0.41095718,-0.50657656,-0.48735844,-0.52277279,-0.51432572,-0.69607699,-0.70885708,-0.65753314,-0.75273004,-0.70590293,-0.79809031,-0.74423759,-0.73958279,-0.83398785,-0.74347188,-0.76722093,-0.65901764,-0.47900686,-0.46295605,-0.3380281,-0.17561808,-0.02308296,-0.06935029200000001,0.020657533999999998,0.15086502,0.13777459,0.12679198,0.07733305,0.1436264,0.17100396,0.12380151,0.11926308,0.16085334,0.16396494,0.16212148,0.22585972,0.21360897,0.29448314,0.32008846,0.27570341,0.36539691,0.34187212,0.40891461,0.52699457,0.54849114,0.58372165,0.61759274,0.62168712,0.70499191,0.72185079,0.70616492,0.73657482,0.62329039,0.71888584,0.72590959,0.75473119,0.66106799,0.68087375,0.67982424,0.58161668,0.5764618,0.49134891,0.54837701,0.46247796,0.37267417,0.49352943,0.48587634,0.43879735,0.41229698,0.35436532,0.35041269,0.43552169,0.59435693,0.74364953,0.91870861,1.0110485999999999,1.2076368,1.4976871,1.7009917,1.8706744,1.8380256999999998,1.7894075,1.6944412,1.4022025,1.1931871,0.78398583,0.62520623,0.1421901,-0.11495687,-0.2863068,-0.41076702,-0.3688757,-0.4132913,-0.44521906,-0.44411416,-0.45838893,-0.53379129,-0.47580717,-0.41220908,-0.46092436,-0.50813976,-0.41539168,-0.36273625,-0.31417725,-0.13639424,0.41145459,0.83285737,0.7789788,1.0602528,1.4211205,1.2266411,0.86034073,0.843409,1.1188061000000002,0.63608742,-1.1039077
11,1.0,-2.6833164000000003,-3.8738157999999996,-3.8970385999999997,-3.7681415,-3.3227743999999997,-2.5855874,-1.6391584,-1.1766591999999998,-0.76793406,-0.31268942,-0.21488969,-0.12732203,-0.059796311,-0.27194064,-0.23859114,-0.0034997265,-0.22553005,-0.25227808,0.11449936,0.10530395,0.040021753,-0.20159624,-0.15002949,-0.10125883,-0.15389467,-0.4096984,-0.35689528,-0.152244,-0.16321142,-0.19419225,-0.36428179,-0.32635505,-0.16960348,-0.1248713,-0.08622111800000001,-0.21231852,-0.26824766,-0.12315727,-0.10025369,-0.070298777,-0.060084291,0.092262902,-0.0017866938,-0.050448288,0.10617036,0.27707553,0.21626455,0.2582002,0.1246536,0.066968254,0.12353187,0.19472764,0.37499616,0.37129564,0.45762782,0.23475065,-0.09403523800000001,0.21794001,0.44685721,0.35943329,0.21643986,0.33987484,0.42215054,0.25360635,0.31612822,0.28047884,0.30391732,0.32201765,0.21546839,0.1511755,0.22350241,0.48292363,0.57610518,0.42425146,0.23370636,0.39107123,0.43779655,0.3952531,0.61472274,0.49674281,0.50588198,0.63623607,0.53527834,0.23002529,0.40059245,0.7089284,0.70316842,0.40080162,0.37579328,0.36343883,0.43758375,0.59609921,0.47207208,0.52098622,0.79161036,1.0526473,1.0533688,1.3793511,1.6929554,1.9999703999999998,2.0769863,1.9871619999999999,1.9456703000000002,1.8157142,1.5167699,1.3632001,1.0762965,0.84461801,0.67571355,0.42303137,-0.069800677,-0.35828529,-0.41301526,-0.52093927,-0.30259088,-0.27154263,-0.56991323,-0.54835915,-0.62272408,-0.47108368,-0.42479732,-0.37847493,-0.35711279,-0.41234991,-0.5403818,-0.57749951,-0.25270863,0.040415329,0.44419231,1.1972252,1.5517308,1.2247190000000001,0.83418507,-0.20865607,-1.3015647,-1.7765053,-1.5639381,-1.0155572,-0.95056203,-1.8900241999999998
12,1.0,-1.4411843,-2.5235521,-3.1240165,-3.6687266000000003,-3.728183,-3.3344546999999998,-3.0301256000000003,-1.5854095,-0.81802624,-0.51084284,0.21973516,0.5315729,0.19182806,0.19108006,0.029693643999999998,0.052279037,0.01777104,0.18304964,0.10535,0.21149174,0.062812602,-0.20823107,-0.031766935,-0.034047396,-0.12047597,-0.11204333,-0.35938191,-0.38278469,-0.54983073,-0.51451938,-0.32072728,-0.41451253,-0.43750723,-0.43347276,-0.9232338,-1.0607474,-0.81838626,-0.79657919,-0.63761355,-0.84353802,-0.69991311,-0.48434843,-0.46851643,-0.50621367,-0.40337472,-0.34890118,0.17430282,0.09052682599999999,-0.17173088,0.19014747,0.075107407,-0.00068212679,0.04333406099999999,0.22766602,-0.11841015,-0.19355434,-0.075079155,-0.23067543,-0.069147863,0.08774171300000001,0.12271051,0.082898333,-0.017774423,0.1334175,0.11766832,0.09046637,0.30542904,0.29731543,0.25927306,0.4355765,0.26711629,0.27106796,0.52181462,0.42021764,0.44588217,0.57469504,0.53844595,0.43292504,0.61259768,0.69454491,0.90699513,0.68515901,0.45494036,0.48580397,0.52241055,0.49335546,0.64606794,0.37911732,0.28426646,0.26541138,0.15442785,0.30493691,0.55949059,0.40073944,0.45144614,0.53703555,1.056724,0.94019698,0.99481256,1.5777606000000002,1.6722901999999997,1.8896134999999998,2.4316281,2.35975,1.8924694,1.7765214,1.824813,1.6202166,1.3130818000000002,0.95388525,0.64723263,0.26930502,-0.079742482,-0.43708174,-0.57301934,-0.44350505,-0.72092268,-0.46297128,-0.42664195,-0.3716949,-0.48002676,-0.53449987,-0.35808416,-0.52842707,-0.51557471,-0.64614454,-0.36376247,-0.24149498,-0.0506424,0.51476926,1.3906265,1.8260703999999999,1.2405374,0.91162307,0.63163231,0.42296542,-0.1319873,-0.89590977,-1.222667,-0.96263889
13,1.0,1.6338368,1.1012308000000002,-0.74699394,-2.2716163,-3.404062,-4.1024385,-3.2216278999999997,-2.117667,-1.695084,-1.5204921,-0.43745048,-0.24509036,-0.28726019,-0.20544583,-0.20824078,-0.21061249,-0.25298426,-0.25966329,-0.32102475,-0.45509231,-0.44708339,-0.4278027,-0.51445751,-0.52461671,-0.61822001,-0.55345992,-0.61516663,-0.71010061,-0.84796402,-0.72298501,-0.81521501,-0.94898278,-0.97956961,-1.0100618000000001,-1.0783826,-1.0470818000000002,-1.1739282,-1.0927921999999999,-1.0560896999999998,-1.1509732,-1.0799458,-1.0795169,-0.97239456,-0.83292661,-0.72395081,-0.66178458,-0.54452925,-0.45451469,-0.32862735,-0.23082879,-0.17287456,-0.18918679,-0.24916485,-0.17894317,-0.18235601,-0.15077977,-0.16140208,-0.047849362,-0.014789362,-0.10633734,-0.083560263,-0.073836192,-0.14035436,0.07086445599999999,0.06898842200000001,0.19882166,0.083001723,0.074425066,0.28727338,0.23315545,0.22592696,0.32313803,0.42412767,0.31753445,0.48222723,0.30348782,0.44146354,0.53476487,0.52082189,0.51722319,0.55138912,0.52842054,0.44916956,0.49078421,0.43544854,0.47352523,0.45691191,0.39661255,0.42371975,0.31121349,0.34821434,0.35225827,0.28507006,0.29133241,0.37014272,0.27332856,0.28629551,0.34160049,0.33116016,0.43641959,0.58710232,0.76574409,1.0528431999999999,1.1512786,1.3187055,1.4045711,1.6958125,2.1484706,2.1265261000000004,2.1284452999999997,1.9737018,1.7731555,1.5574775,1.2515321000000001,1.0329556999999998,0.4630705,-0.10207251,-0.14128335,-0.23979625,-0.31060519,-0.14975974,-0.15930815,-0.2499003,-0.16107504,-0.092355149,-0.09934723599999999,-0.17676934,-0.14479889,-0.12913916,-0.024626192999999998,-0.073047894,0.0014569674,0.4280681,0.99927407,1.0317013000000002,1.727873,2.0345664,2.2160957000000003,1.6666584999999998,0.99970093
14,1.0,-1.261477,-3.558816,-4.0743471,-4.1274279,-3.6702849000000004,-2.9299253,-1.6058584999999999,-0.978395,-0.73812186,-0.12471419,0.090354368,-0.0046235512,-0.08701800800000001,-0.072058459,0.038846593,-0.036935987,0.027266347000000003,0.01182483,-0.084632899,0.024435789,-0.0069571539000000005,-0.056642825,-0.14717826,-0.12819655,-0.094068536,-0.1826574,-0.17884099,-0.20469937,-0.21204693,-0.21349417,-0.46579313,-0.42165821,-0.44474408,-0.38601804,-0.51142856,-0.44654585,-0.4285419,-0.39666333,-0.38469369,-0.33313175,-0.28759431,-0.19574871,-0.23383727,-0.030059385,0.0047094531,0.044033525999999996,0.14071229,0.19393529,0.17983196,0.14933542,0.18982971,0.2232833,0.20014852,0.14683928,0.07242667,0.25113723,0.16401433,0.11016759,0.200383,0.1549845,0.20319732,0.19966666,0.22804083,0.29194171,0.22642057,0.27042937,0.268626,0.33949121,0.37477323,0.35847498,0.4592407,0.37990866,0.42153559,0.46701771,0.5114156,0.49065862,0.49358131,0.46642084,0.48111756,0.36677553,0.55528759,0.48855597,0.36397936,0.42892622,0.33961007,0.31311901,0.30651648,0.38134217,0.40024797,0.2946771,0.31836848,0.35424446,0.27321754,0.43713183,0.44325237,0.64344548,0.8132216,1.0152316,1.1686203000000002,1.2944826999999999,1.5764744,1.7574368999999999,1.8316103,1.7615753,1.6118613000000002,1.4719708,1.2454458000000002,1.0403961,0.79434144,0.50363943,0.086155706,-0.26248306,-0.31192822,-0.41270001,-0.35967798,-0.35578706,-0.32485065,-0.18169776,-0.2665098,-0.26658803,-0.21841409,-0.31397929,-0.31873115,-0.12591928,-0.22943656,-0.081526834,-0.17415504,0.1576117,0.59739598,0.84372884,0.89170485,1.0651472,0.87713127,0.64405661,0.51704451,0.57151164,0.82132762,-0.47338792,-2.4886271,-4.306003
15,1.0,-1.726934,-4.3630304,-4.9501566,-4.481907700000001,-3.5314117,-2.0606926,-1.6374241000000003,-1.233676,-0.43848025,-0.29916561,-0.26369674,-0.2814693,-0.14452099,-0.22534361,-0.19437357,-0.20587189,-0.24557843,-0.23810838,-0.24381639,-0.32603439,-0.34491475,-0.34900881,-0.34274814,-0.39461861,-0.47904139,-0.53147262,-0.48798632,-0.52565748,-0.66929021,-0.67315121,-0.79375108,-0.81729931,-0.82956822,-0.92898252,-0.81331175,-0.82086213,-0.78429452,-0.78961213,-0.73401881,-0.71742701,-0.79235715,-0.49846383,-0.47385134,-0.30810556,-0.11842689,-0.13741281,-0.022423951,-0.0002351145,0.095796144,0.092161841,0.16904098,0.21606696,0.19883004,0.16683781,0.23964094,0.24865884,0.19746381,0.23249557,0.29362896,0.21112426,0.35869157,0.36063636,0.28883568,0.36117137,0.39870974,0.52671321,0.46519998,0.55621626,0.6258168,0.59724397,0.66859766,0.72428642,0.74547114,0.63481726,0.69359346,0.7396187,0.65936719,0.61431599,0.60128711,0.55576876,0.46644332,0.41423383,0.47537583,0.3868106,0.43875767,0.42150327,0.36971149,0.40741604,0.32855086,0.39167091,0.37086275,0.33634873,0.269677,0.2948879,0.30918236,0.42165173,0.51473916,0.5939169,0.82286052,0.85960365,1.0320964,1.0429222,1.2236673,1.3870115,1.5248873,1.2548434,1.007458,0.85083625,0.71747516,0.65937956,0.63022587,0.31037921,0.010310620999999999,-0.1076112,-0.29092922,-0.32103752,-0.34171109,-0.25431132,-0.20887748,-0.19313646,-0.11271694,-0.21397676,-0.30141556,-0.36536681,-0.31050297,-0.2154853,-0.19964576,-0.19773475,-0.033530519,0.15779313,0.75012438,0.9324673,1.0909033000000001,1.44894,1.4610454,1.3431871000000002,1.2458735,1.2024092,1.8654323,0.35599832
16,1.0,1.5481208999999998,-0.038466282000000004,-2.2689156,-3.4024617999999993,-4.206850900000001,-3.8277122,-2.7285371,-2.0063356,-1.7198232,-0.71360538,-0.16440376,-0.27972851,-0.29344251,-0.40136938,-0.47738292,-0.44808078,-0.36920996,-0.46922091,-0.42771168,-0.50054655,-0.36376779,-0.43492242,-0.51213942,-0.55433261,-0.60326524,-0.61656048,-0.57732309,-0.65028736,-0.79587878,-0.78306499,-0.89466416,-0.93714707,-0.95277755,-1.0026267,-0.92495251,-0.93878188,-1.0240521999999999,-0.9817018,-0.93664149,-0.95252645,-0.87179989,-0.71554841,-0.61695093,-0.52039627,-0.42018011,-0.40546851,-0.2940805,-0.32558131,-0.21254574,-0.12952831,-0.105058,-0.036253821,-0.1381666,-0.12092201,-0.058067197,-0.086840004,-0.027120366,-0.087754495,0.02753259,0.10321926,0.10772694,0.14262476,0.08474732800000001,0.2281057,0.16805696,0.16108321,0.27337666,0.23128874,0.42688723,0.45421317,0.48668869,0.51697762,0.54569601,0.54213151,0.46998927,0.52248602,0.47838031,0.54184584,0.55773421,0.45177106,0.51398149,0.42822211,0.43183143,0.33710035,0.30784527,0.398927,0.32111136,0.29231579,0.31362028,0.34491114,0.33790188,0.30433524,0.46440914,0.25456268,0.29466741,0.29196251,0.22474742,0.28511544,0.40583788,0.43890622,0.66819612,1.0239815,1.1936048000000001,1.2294443000000002,1.4333954,1.7652058999999998,2.1020887999999998,2.0527641,2.0507291000000003,1.8251636000000002,1.6666926,1.5311424,1.2812932,0.85235127,0.22944292,-0.09623511300000001,-0.13949608,-0.12937923,-0.20719188,-0.2666162,-0.24586425,-0.17595437,-0.24106926,-0.20004385,-0.21032881,-0.032728468,-0.18316993,-0.23352215,-0.18605516,-0.10313711,-0.058388287000000004,0.3790173,0.95321946,1.0186219,1.5581646,1.9906701,2.0299658,1.0149013,0.95640024,1.1932089
17,1.0,0.19640334,-2.1737718999999998,-3.5226995000000003,-4.7251208,-4.5952386,-3.8490623999999998,-2.5372296000000003,-1.4936421999999998,-1.4439211,-0.5786851,-0.09243913,-0.089342344,0.0046421597,0.035375021,0.076071335,0.069769372,0.034240529,-0.02291892,0.0079044015,-0.021411332999999998,-0.09332777699999999,-0.11409336,0.029891716000000002,-0.037766454,-0.06719169900000001,-0.17920329,-0.10108247,-0.15296203,-0.24552099,-0.14660905,-0.21761314,-0.24316532,-0.30683938,-0.2692695,-0.27748516,-0.2840835,-0.24827662,-0.18028276,-0.2549249,-0.24730925,-0.1431995,0.012719903000000001,-0.065173057,-0.075775701,0.073216835,0.1834306,0.23757569,0.29978642,0.27082147,0.19357848,0.27785866,0.28853956,0.16284025,0.19857556,0.15776187,0.17138454,0.187152,0.17697464,0.14591489,0.096114391,0.22468084,0.11452671,0.16588895,0.24962615,0.2537574,0.27031296,0.10727348,0.18615154,0.30283577,0.23265018,0.31521456,0.38450064,0.37787469,0.48849785,0.56171142,0.51728565,0.57019658,0.4936927,0.45403508,0.50390144,0.37653709,0.37914493,0.45241822,0.44539852,0.22212962,0.2979025,0.2074077,0.205499,0.28486418,0.27379974,0.16874992,0.1614491,0.23730796,0.18846127,0.25967603,0.09445960699999999,0.38709937,0.63763997,0.71044873,1.036956,1.2219948999999999,1.5832846999999999,1.9640931000000001,2.102626,2.0334962,1.9125936000000001,1.8756186000000001,1.6779808999999997,1.3236685,1.0321396,0.70575531,0.38462054,-0.09232018800000001,-0.39252453,-0.60073458,-0.76809249,-0.7278514,-0.66738339,-0.71333003,-0.64364287,-0.71761124,-0.74591376,-0.69336087,-0.73379838,-0.65292162,-0.8175586,-0.7356313,-0.72715007,-0.59799905,-0.21962465,0.55430877,1.3346021000000001,1.2884959999999999,1.2894998,1.0367259,0.37911761,-0.20694254,-0.42732559,0.37011937,-0.48289417
18,1.0,-0.10468747,-3.2638034,-4.2199039,-4.399685,-3.8599879999999995,-3.0031049,-1.8491338,-1.4854527,-1.0168784,-0.12513536,-0.22830571,-0.31302321,-0.31345678,-0.27954514,-0.33693329,-0.41835781,-0.25402022,-0.3578849,-0.36436257,-0.34076411,-0.41912204,-0.39320176,-0.5779467,-0.52805477,-0.60049632,-0.60726743,-0.53473688,-0.64381897,-0.61995304,-0.74762605,-0.80142683,-0.75248268,-0.80741913,-0.88834079,-0.91457146,-0.86154253,-0.8804671,-0.85533832,-0.78450878,-0.70324234,-0.63954882,-0.57999258,-0.4714881,-0.3179358,-0.2514477,-0.21564774,-0.15424345,0.0096593925,-0.0095457085,-0.064123948,-0.032491024,0.0084876103,0.062066483,0.075874147,0.11449647,0.13464798,0.13809569,0.15820639,0.13011848,0.2594544,0.17202032,0.21516816,0.30143932,0.23300661,0.39342059,0.37348536,0.50289389,0.47677922,0.48285672,0.66438862,0.59475839,0.60437853,0.75831063,0.69081685,0.70838807,0.69762397,0.63852641,0.59893679,0.55351198,0.61511812,0.48472019,0.38578126,0.49710576,0.44614686,0.47636761,0.41534376,0.49339213,0.33094981,0.45123694,0.43402515,0.31294642,0.34548627,0.26394373,0.30208586,0.31600772,0.39006983,0.54989412,0.70927377,1.0091192,1.0997042,1.2582015,1.4658948,1.7078348,1.8288049,1.6488436000000002,1.5809882,1.2771039,1.0231645,0.86432511,0.73509193,0.65508815,0.4286771,-0.0029903398999999997,-0.21373045,-0.30799579,-0.24615593,-0.27776066,-0.34831787,-0.35482862,-0.39677191,-0.3298866,-0.34123565,-0.23467475,-0.24813061,-0.24922611,-0.25562865,-0.24403471,-0.16531324,-0.1017308,0.31215064,1.0074319999999999,1.2269671999999998,1.2623253,1.4680867,1.648657,1.4074396,1.0617836,0.86563402,1.5708583,0.12497909
19,1.0,-0.96221272,-2.7933912999999997,-3.8344949,-4.2259613,-3.7432364000000002,-3.1823493999999997,-2.1244553,-1.5353088,-1.4138798000000001,-0.81903464,-0.37580645,-0.34419026,-0.32432681,-0.42333031,-0.39735212,-0.36657671,-0.30646367,-0.31890271,-0.30640049,-0.43647309,-0.40386387,-0.41495617,-0.43508503,-0.38164809,-0.43606079,-0.55394169,-0.48713907,-0.44470407,-0.54641703,-0.58085807,-0.60715446,-0.61694134,-0.6259042,-0.64425176,-0.63685059,-0.61101552,-0.63761006,-0.67288694,-0.6388964,-0.64016686,-0.59637897,-0.62138621,-0.62504067,-0.47598833,-0.46234217,-0.54829495,-0.46271749,-0.44526047,-0.21407908,-0.14454497,-0.07614201599999999,0.045650392000000005,-0.08391689599999999,0.0035167134999999996,0.008893053199999999,0.088444734,0.073826708,0.05328571,0.021183353999999998,0.053017975,0.075738501,0.11694652,0.036697092,0.051067802999999995,0.13309468,0.059554904000000006,0.19252832,0.2311707,0.28545318,0.25886961,0.33186715,0.32051666,0.40785831,0.44225901,0.46271228,0.4591102,0.4792776,0.49808338,0.57368378,0.60794526,0.63329896,0.59688948,0.57759975,0.5860989,0.6293039,0.57185875,0.53368491,0.4855797,0.577325,0.6470459,0.54581301,0.61027025,0.63204856,0.68220243,0.8026587,0.88426003,1.0260044,1.1298961,1.4374787,1.8034503,2.0532774,2.2143175999999998,2.2376635,1.9823814999999998,1.7598381999999997,1.7377616000000002,1.4746131000000002,1.1208361999999998,0.86996228,0.47680482,0.19875231,-0.048969979000000004,-0.23064134,-0.16945804,-0.12701336,-0.2320474,-0.19816036,-0.24021192,-0.2123423,-0.22667704,-0.2057862,-0.16058177,-0.19610224,-0.16226143,-0.13694115,-0.16050973,-0.1389307,0.17489006,0.64717311,1.2098513000000002,1.2133258999999998,1.0255973,1.0286003000000001,0.86633803,0.59060155,0.35909158,0.46017647,0.78612708,0.8792967,-0.27907278
20,1.0,0.22503197,-2.3586638,-4.152257700000001,-4.6036151,-4.0210154000000005,-3.3555032,-2.012037,-1.5042467,-1.2250968999999998,-0.49399838,-0.26688255,-0.33276324,-0.25632966,-0.31687435,-0.3733474,-0.37433768,-0.31290372,-0.3092882,-0.46580813,-0.52860001,-0.38210463,-0.45425653,-0.43853062,-0.5099094,-0.56310548,-0.55135205,-0.6291022,-0.67421751,-0.66220228,-0.72487842,-0.70608992,-0.84220155,-0.83964938,-0.8215887,-0.82985903,-0.85096949,-0.828983,-0.84422478,-0.8950072,-0.69850324,-0.69254458,-0.60262907,-0.53502928,-0.47086431,-0.37261031,-0.27076323,-0.17537269,-0.13244556,-0.1802441,-0.0022050367000000003,-0.057153627,0.0065517406000000005,-0.14592308,-0.12988446,0.025511596,0.012652759,0.074032542,0.0087419951,0.072188106,0.11720738,0.04356387,0.13887301,0.1577023,0.27278699,0.24949582,0.18971301,0.23881727,0.31800364,0.40700179,0.43854623,0.53100259,0.4671009,0.49766481,0.54890704,0.49679855,0.49491405,0.48753923,0.45790513,0.32393425,0.45927933,0.47795097,0.5029778,0.29515366,0.43102339,0.46732046,0.3754956,0.46970825,0.41578255,0.46188992,0.40094254,0.26454744,0.37468968,0.39471052,0.34414177,0.45778489,0.35582606,0.49976701,0.6616898,0.85911293,1.0205598,1.0241674,1.2497975000000001,1.4216196,1.5343518999999999,1.6460892,1.5454253999999998,1.4577868999999999,1.1523233,0.97915661,0.84690885,0.82653493,0.66653539,0.28841535,0.065988271,-0.061407248,-0.052390347000000004,-0.048161415,-0.030400461,-0.033371879,-0.043034897,-0.027424598999999997,-0.10896181,-0.12042351,-0.073871232,-0.037413909,-0.03657299,-0.0091504612,0.14103624,0.15404282,0.70030229,1.3807117,1.2571332,1.5594734,1.7317379000000002,1.6645508999999998,1.1909027,1.0666301999999999,1.4310277,1.6643185,-0.47895246
21,1.0,-1.3471245,-4.0075881,-4.8181683,-4.3429825,-3.4966309,-2.2213312000000003,-1.6208361,-1.4201084,-0.48789734,-0.18123008,-0.26289323,-0.16929708,-0.21953261,-0.058963348,-0.030540287000000003,-0.17991333,-0.13696908,-0.19963918,-0.23751229,-0.18637909,-0.20071532,-0.18345383,-0.35102511,-0.31275731,-0.34030419,-0.50990249,-0.4992943,-0.36201356,-0.49275031,-0.52145831,-0.56692593,-0.60225495,-0.78195805,-0.77014294,-0.71386823,-0.63143254,-0.66471859,-0.72921801,-0.53657802,-0.5594334,-0.46384023,-0.31820641,-0.17400594,-0.15226394,-0.008798751899999999,0.12936704,0.020566378,0.17167959,0.16123942,0.29084991,0.2248062,0.21472408,0.38946044,0.34888828,0.27526216,0.32724409,0.29708453,0.30369226,0.3794964,0.39330008,0.40408547,0.43604937,0.381345,0.47002119,0.42039044,0.56081695,0.59605293,0.64395773,0.58394073,0.57855724,0.60889847,0.65912061,0.73202686,0.67937824,0.64860862,0.59913636,0.57239555,0.49568665,0.5725341,0.5243115,0.41836509,0.39020801,0.47771981,0.32816218,0.37687027,0.37360686,0.29121381,0.18234907,0.14617144,0.28059603,0.23899383,0.076595468,0.080506885,0.15478462,0.21669524,0.19116693,0.43614743,0.52085729,0.72334272,0.86354003,0.9879581,1.3412526000000002,1.6894931,1.8284017,1.6739404999999998,1.6272133,1.6000101999999998,1.3428768,1.1524828999999999,0.67655953,0.38300068,0.13027419,-0.30308092,-0.44051384,-0.69353652,-0.59152568,-0.54566697,-0.61504649,-0.60891585,-0.67401402,-0.62925774,-0.62269842,-0.71755655,-0.59227107,-0.61264074,-0.64869638,-0.56542551,-0.55057336,-0.44556851,0.14185835,0.97477785,1.109014,0.98671821,1.3435703,1.5656674,1.1019656,0.8263218,1.1084508,1.5724521999999999,-0.097281799
22,1.0,1.7587573,0.48943753,-1.5222316999999999,-2.8500845,-4.1131475,-4.0636625,-2.9873349,-1.8182313,-1.6280368,-0.88242187,0.02950934,-0.083662319,-0.1795846,-0.22388574,-0.088153995,-0.0008579242,-0.17113109,-0.18891259,-0.14262176,-0.20155567,-0.24289758,-0.30561452,-0.34914826,-0.35790187,-0.37679969,-0.46147958,-0.54302018,-0.46976248,-0.58368451,-0.59948512,-0.61418501,-0.75204903,-0.87794329,-0.87411633,-0.96314435,-1.0517551,-0.96711501,-0.84689214,-1.1263743999999998,-1.0716358999999998,-0.9603187,-1.0927078000000001,-0.91418106,-0.66565493,-0.75021795,-0.58859418,-0.48218316,-0.28218065,-0.32667184,-0.1846468,-0.080296137,-0.14607514,-0.11429572,0.029316961000000002,-0.043907827,-0.08872968099999999,0.02825698,0.061022757999999996,0.0014498157000000002,0.052167186,-0.044224625999999996,0.11365912,0.15371973,0.041598155,0.06856462299999999,0.12392838,0.24905676,0.19658446,0.18185905,0.31934714,0.38884171,0.37111895,0.38291079,0.40139714,0.44102579,0.4496392,0.47455765,0.45556656,0.42314592,0.61205792,0.48707679,0.45081475,0.52268285,0.2672997,0.34131469,0.30797629,0.2428655,0.11636117,0.16266685,0.30216002,0.16940194,0.22051311,0.24363351,0.18934908,0.19056056,0.19084071,0.16851441,0.11855625,0.29657924,0.47200018,0.83835902,1.0774044,1.1701847,1.1857495,1.4761904,1.8329683999999997,2.1005082,2.0900883,2.0794486,1.8615263,1.695238,1.4751413,1.0012681,0.67018171,0.081035484,-0.33470846,-0.36266707,-0.38049797,-0.43158924,-0.45609927,-0.44546612,-0.42187052,-0.43237005,-0.37329564,-0.37544964,-0.40447521,-0.31897668,-0.26341582,-0.33008695,-0.20447889,-0.21689946,0.29921104,0.91016633,1.1644204,1.761712,2.0982979,2.3065787,1.5104879,1.0361704999999999,1.6157525
23,1.0,0.08204436400000001,-0.15354808,-1.5735748,-2.7782025000000004,-3.5331174,-3.9679483999999996,-3.2760872,-2.2903384,-1.7285525000000002,-1.1032904,-0.39898656,-0.23277551,-0.35867117,-0.33078167,-0.28372054,-0.31497214,-0.42925708,-0.45439577,-0.39093067,-0.4719893,-0.38344628,-0.42382322,-0.55770569,-0.54851691,-0.59317372,-0.70898303,-0.64397943,-0.79822447,-0.72195177,-0.75223992,-0.76301072,-0.84064938,-0.91488814,-0.95148974,-1.0056243,-1.0447925,-1.1040633,-1.0862949,-1.1626094,-1.1725076,-1.1178763999999999,-0.94699503,-0.89218842,-0.93983442,-0.74254869,-0.6410349,-0.43455581,-0.49521253,-0.39027296,-0.22700307,-0.1090361,-0.16379907,-0.15259937,-0.10115986,-0.1162111,-0.046195272999999995,-0.045475713,0.03182353,-0.020247736000000002,0.072452214,0.018492238,0.024302497000000003,0.12557877,0.058756595,0.10838843,0.078240422,0.13708933,0.24975398,0.30651007,0.34475149,0.37385291,0.54285421,0.59114589,0.62185147,0.662859,0.6946443,0.68369673,0.67879015,0.70854494,0.73881508,0.60795025,0.61945461,0.628415,0.54184953,0.58530232,0.53297322,0.56849652,0.46617297,0.50349726,0.50286578,0.5065613,0.47422053,0.51139025,0.45209596,0.36828631,0.49305776,0.49344602,0.40745961,0.42616768,0.41487508,0.33918178,0.57412349,0.89385719,1.2717126,1.2878135,1.5835141000000001,1.8224148,2.2513099999999997,2.3981689,2.3773916,2.1842286,1.9765716,1.7508911,1.4214403999999998,0.83883439,0.17021013,0.028670631000000002,-0.10492993,-0.035473732,-0.079088172,-0.10868851,-0.17333403,-0.11741199,-0.09533206300000001,-0.078551404,-0.060767065,-0.1476386,-0.051861055,-0.013990025,0.010094079,0.058859283,0.36184449,1.1010262,1.292575,1.0699905,1.4008601999999999,1.1918176999999999,0.65305907,0.061461524000000003,0.48672819
24,1.0,-0.93803929,-2.2444197999999997,-3.1218751,-3.7530522000000004,-4.132823200000001,-3.9824227999999997,-3.3938832999999997,-2.329488,-1.4701135,-1.3691954,-0.90027227,-0.33879713,-0.31135154,-0.43229447,-0.44019105,-0.25396223,-0.25487658,-0.26951771,-0.3305819,-0.26324423,-0.21012975,-0.24121263,-0.16114917,-0.20687328,-0.31696323,-0.2037751,-0.16313758,-0.21722623,-0.21680205,-0.15351003,-0.22201253,-0.076401473,-0.11222975,-0.17209564,-0.20964841,-0.19610761,-0.057298456,0.044175846,0.0074357216,-0.044170429000000004,-0.078953921,0.048492558,0.045632547,0.064728338,0.10902562,0.029419867000000002,0.009273526800000001,0.083066557,0.15526547,0.25611816,0.3258601,0.16045492,0.11051077,0.10922592,0.077006695,0.13620172,0.19556097,0.07876169400000001,0.09286501400000001,0.19349744,0.055753432,-0.048705475,0.046081379000000006,0.035332753,0.12829978,0.15815116,0.20622322,0.14831186,0.2044676,0.24653074,0.29012568,0.2989484,0.34018053,0.37003193,0.42952041,0.44167188,0.43987748,0.35613725,0.45509234,0.47477226,0.56256961,0.6146757,0.60552146,0.53527723,0.57787238,0.65132558,0.69125124,0.57432664,0.47881749,0.57122554,0.48801001,0.51243248,0.66233397,0.78853106,0.92978757,1.0636187,1.0537267,1.2093708,1.4385165000000002,1.782691,1.9266592,2.0452268,1.9931873,1.9519479,1.7642681,1.5685883,1.4330811,1.1539532,1.000114,0.70916272,0.26223673,0.068853058,-0.025677084,-0.12392593,-0.14452302,-0.20085296,-0.17793619,-0.28710685,-0.29597618,-0.23823906,-0.19917711,-0.2051524,-0.16930365,-0.21618976,-0.2786418,-0.25463146,-0.25372103,-0.034712054,0.53270926,0.99845529,0.98418905,0.7898344,0.38175241,-0.35530137,-0.91131813,-1.25916,-1.2427692,-0.62235101,-0.30075693,-1.1779624
25,1.0,-0.67884458,-1.9598398999999997,-3.0053433,-3.6888108999999996,-4.1062216000000005,-3.9795559000000003,-3.4585817000000003,-2.3526444,-1.6543872,-1.3928041000000002,-0.72678814,-0.5091857,-0.61446877,-0.52649833,-0.39977571,-0.40288354,-0.3992608,-0.34059258,-0.38652249,-0.39632435,-0.43955799,-0.51722194,-0.45713889,-0.39094472,-0.38973234,-0.40563585,-0.49277792,-0.40737765,-0.53153682,-0.48161293,-0.44798071,-0.65955506,-0.5260794,-0.59648932,-0.60794164,-0.56501865,-0.55749508,-0.48072056,-0.49484706,-0.48399487,-0.4996342,-0.34872678,-0.31223246,-0.26393867,-0.2541792,-0.1343626,-0.086807334,-0.08052832900000001,0.0056713323,0.022535336,0.053892878,0.1177705,0.087938281,0.1049321,0.040023062000000005,0.026189154,0.053471205,0.031988358,0.051725152999999996,-0.033363995,0.051134994,0.16006227,0.15362293,0.10446212,0.082132045,0.18350714,0.24876019,0.25853276,0.27210552,0.29559823,0.36016263,0.31977376,0.40480457,0.46919218,0.5062206,0.47633143,0.48938916,0.53513937,0.56506792,0.52851849,0.58451837,0.59285,0.48326948,0.56312495,0.56543411,0.57614281,0.61764418,0.51139881,0.54369573,0.4949275,0.43841868,0.54704623,0.55675205,0.54701123,0.58355565,0.72077511,0.98714551,1.0428872,1.1756434999999998,1.2652635,1.4947032,1.7705673,1.9349682000000001,1.9776535,1.8829128000000002,1.7456072,1.5522833,1.3332600000000001,1.1955407,1.0161292,0.76621569,0.38949815,0.12527014,-0.052087888,-0.03274231,-0.0095450208,-0.078761746,-0.062946561,-0.032176975,0.04103107,0.094734926,-0.048301397999999995,0.017290708999999998,0.053086932999999996,0.012210728,0.042477968,0.09587186199999999,0.16804839,0.49551594,1.1794008999999999,1.6214961,1.4622287,1.1843097,0.59984746,0.19129432,-0.202472,-0.41039749,-0.11369729,0.017669808999999998,-0.9493895
26,1.0,0.269583,-1.673338,-3.6606031999999997,-4.5073871,-4.0540901,-3.2557521,-2.2618622000000004,-1.7816515,-1.5929189,-0.85275378,-0.48282537,-0.54900429,-0.52492005,-0.49767235,-0.49632601,-0.47065653,-0.5225466,-0.46929651,-0.46696827,-0.5395264,-0.53320676,-0.54926201,-0.67972833,-0.70374862,-0.64662775,-0.65319518,-0.67391338,-0.73983672,-0.73350748,-0.76423123,-0.83100532,-0.90396523,-0.88863138,-0.9052537,-0.95328164,-0.94904547,-0.88627166,-0.87691957,-0.74076742,-0.82319787,-0.74413806,-0.64822127,-0.58720697,-0.44207074,-0.29180421,-0.17485033,-0.14071018,-0.09631461699999999,0.011179461000000002,-0.059266464000000005,0.032619281,0.07512532400000001,0.12935158,0.076154979,0.083165002,0.10685169,0.010511564,0.064472985,-0.012142578999999999,0.12934292,0.14895278,0.089847427,0.17246188,0.18641692,0.18415295,0.21602126,0.24047504,0.35576563,0.38111047,0.4259858,0.4827679,0.55115877,0.54634183,0.58486679,0.59988603,0.57679896,0.6523879,0.57558585,0.6493144,0.65503323,0.62285662,0.53290436,0.57535454,0.6082661,0.4584828,0.48592649,0.53661934,0.48799381,0.47617533,0.46690525,0.4278718,0.4123723,0.44432175,0.41710157,0.42043199,0.4335846,0.47357173,0.6208019,0.8547361,0.99077504,1.1468593999999999,1.2061036,1.3782577,1.6022101,1.6041324,1.4989616000000001,1.5219913999999999,1.2971591999999998,1.1349693,1.0194901,0.87722487,0.70340115,0.46690633,0.09879803699999999,0.056605648,-0.11716254,-0.10729254,-0.070998691,-0.059912361,-0.061045452,-0.14812495,-0.10634297,-0.074965351,-0.13627001,-0.068142947,-0.10544592,-0.12654973,-0.080913119,0.065401827,0.21900555,0.67799146,1.1408052,1.2096753999999998,1.4206133,1.7075319,1.6361373,1.4071895,1.0504427,1.4444627,0.95251722
27,1.0,-1.0151678,-2.350438,-3.2240806,-3.8116597999999997,-4.051939,-3.7758217000000003,-3.1761502,-2.1685950000000003,-1.3350950000000001,-1.1451992,-0.78793928,-0.32060835,-0.11305912,-0.14860753,-0.15650666,-0.13280027,-0.19841578,-0.15739485,-0.06345856799999999,-0.10000744,-0.16784843,-0.10126674,0.011506543000000001,-0.011598799,-0.078390048,-0.08249398299999999,-0.1677658,-0.20854133,-0.10111954,-0.094713561,-0.012878856000000001,-0.12275293,-0.025713621000000002,-0.051618052000000005,-0.024830404,-0.018641495,-0.052646412000000004,0.0077313903,-0.078502435,-0.078026347,0.018284052,-0.007082526800000001,0.075035783,0.054280097,0.0091482551,0.075207105,0.15894696,0.22025087,0.080988154,0.15391004,0.24411414,0.27250928,0.23946692,0.28330856,0.15577472,0.08237596700000001,0.19143812,0.099725195,-0.051511529,0.041292071,0.19513741,0.13847281,0.10367785,0.078023151,0.09717825599999999,0.29140624,0.19160098,0.041532388999999996,0.076102793,-0.03867931,0.034731739,0.223681,0.18209555,0.15531498,0.21449309,0.25127382,0.21586557,0.30726305,0.39282903,0.40309006,0.47389211,0.44273559,0.56696347,0.37984987,0.54479795,0.58396881,0.61903534,0.72166507,0.69827723,0.80122637,0.92559002,0.94637709,0.99127888,1.1599541000000002,1.2925457,1.6554229,1.9222845000000002,2.1290588,2.259095,2.2239373,2.0577359,1.7776444,1.6124174999999998,1.4228298000000001,1.1876586999999998,0.99863972,0.63228403,0.29946719,0.16221145,-0.013419107,-0.12677788,-0.15352421,-0.083199182,-0.14296727,-0.33291228,-0.21317664,-0.19761545,-0.3542833,-0.34890741,-0.22873911,-0.23273968,-0.30961904,-0.28544293,-0.3324297,-0.36568086,-0.17631095,0.14261941,0.48622327,0.96661848,0.92310916,0.61815745,0.14344167,-0.65629378,-1.0361389,-1.0748726999999998,-1.1214084999999998,-0.63017778,-0.22250074,-0.67422862,-1.7151463
28,1.0,-1.229557,-2.6296593999999995,-3.5225004999999996,-4.1857843,-4.1342976,-3.6404294000000004,-2.8131668,-1.7094200000000002,-1.3419003,-1.1333678,-0.6306265,-0.2782088,-0.17981694,-0.17780533,-0.28978172,-0.34644988,-0.26746333,-0.25977115,-0.29050589,-0.21450352,-0.25301167,-0.21621462,-0.25168524,-0.28774556,-0.22962363,-0.26830771,-0.17363367,-0.21182079,-0.24335295,-0.26639406,-0.1457391,-0.21018528,-0.25341427,-0.17283058,-0.12310967,-0.0061906573,-0.079096193,-0.048762177000000004,-0.041718344,-0.041122612,-0.036897565,-0.050642652,0.035134751,0.061576711,0.13882338,0.18681996,0.20155366,0.17071102,0.29213962,0.24234691,0.15899484,0.27236199,0.18473584,0.18732705,0.085164864,0.1648058,0.16876852,0.14971716,0.2123048,0.20580903,0.22077923,0.22301065,0.14208175,0.13356021,0.18257639,0.21663748,0.25947631,0.31937284,0.26246526,0.35609064,0.35051644,0.34400018,0.4847248,0.44754317,0.43189094,0.55597486,0.56149082,0.61751337,0.66302625,0.57606105,0.63389834,0.51557034,0.54893012,0.64509496,0.46950577,0.5509733,0.42827375,0.43685988,0.43574804,0.31454884,0.31353507,0.40862173,0.45736277,0.49820977,0.66640397,0.82941256,1.0124575,1.0391046999999998,1.262475,1.4415058,1.7447418000000001,1.947817,2.0230513,1.8713054,1.7615456000000003,1.4455063999999997,1.2851738000000001,1.2092413999999998,0.84692681,0.66867817,0.39161747,-0.056904239,-0.30958403,-0.28271589,-0.31369171,-0.30034301,-0.28434848,-0.23387202,-0.23910104,-0.25323837,-0.24220102,-0.31596035,-0.34793838,-0.28036306,-0.28414042,-0.3402199,-0.29754686,-0.10755807,0.22168836,0.96934897,1.6307784,1.3588774,1.0368267,0.29865809,-0.33421548,-0.91384553,-1.3439506,-1.5712233999999998,-1.0702399999999999,-1.4784469999999998
29,1.0,0.22095636,-1.7129207999999998,-3.6590589,-4.417155999999999,-4.0020133,-3.3307066,-2.2912462000000002,-1.7293641,-1.5163203,-0.86030345,-0.57398041,-0.58035672,-0.50266024,-0.53996569,-0.53295641,-0.52439166,-0.52716734,-0.49507882,-0.60831159,-0.64247695,-0.54286583,-0.57044685,-0.58728984,-0.62384479,-0.56463971,-0.66561745,-0.62889779,-0.61118263,-0.73162894,-0.78419771,-0.75214009,-0.76623376,-0.82930167,-0.86630543,-0.78514667,-0.86816924,-0.84705515,-0.86276657,-0.83813268,-0.79058073,-0.73552703,-0.59651195,-0.4967472,-0.37837306,-0.33091368,-0.2528969,-0.22245119,-0.07890084900000001,-0.074797123,-0.09681064,-0.073418438,0.015706541,-0.0045606474,0.036678924,0.015635431,0.059481408,0.039191632000000004,0.1048723,0.067628311,0.041362386,0.10022443,0.084099152,0.15518544,0.17873767,0.21344661,0.23490928,0.28866898,0.3256454,0.38744799,0.41496363,0.40332018,0.38265388,0.43059855,0.39310708,0.5465338,0.57293744,0.5776963,0.64971453,0.56103967,0.49951101,0.6150811,0.60335991,0.50576495,0.47527826,0.53006156,0.55237097,0.57851443,0.44912889,0.45245062,0.52366873,0.5393759,0.45734667,0.4242616,0.5277548,0.54356892,0.54985258,0.58636901,0.85453813,1.0443725,1.1289566,1.34154,1.5228977,1.7135305,1.7273598999999997,1.7193991999999998,1.6903255000000001,1.5518023,1.3581621000000001,1.1574701,0.92786121,0.73992055,0.34068844,0.17775223,0.057422795,-0.05520577,0.10612173,0.013859949,-0.0065196116,-0.02305417,-0.032353559,0.10569094,0.046789425999999995,-0.051047508,-0.019230333999999998,0.12336957,0.043133924000000004,-0.018420673999999998,0.098553388,0.33267229,0.91239946,1.1666391999999999,1.1694146,1.1126614,1.1259215,0.96659873,0.87303599,1.3409133,1.7380723999999999,1.0361428,-1.1715343999999999
30,1.0,0.83734178,-1.5663314,-3.1687191,-4.0696,-4.9201728,-4.476307599999999,-2.8633197999999997,-1.8449897000000002,-1.6278324,-0.50637265,-0.025243467999999998,0.013117238,0.065789872,-0.048245170999999996,0.045313652999999995,-0.09534621900000001,-0.075439698,-0.15507312,-0.14359794,-0.093062045,-0.26844063,-0.24881219,-0.27207697,-0.33847269,-0.37408591,-0.34273236,-0.32947044,-0.43174841,-0.52825704,-0.66393313,-0.67694104,-0.75263907,-0.7656777,-0.85325481,-0.86336554,-0.86151735,-0.79577976,-0.86145815,-0.85338597,-0.72007061,-0.67973238,-0.58426025,-0.65357015,-0.41148008,-0.43070814,-0.35579827,-0.23778135,-0.14528534,-0.083868945,-0.024342059,0.018754929,0.055029792,0.18469542,0.1374842,0.20140736,0.090222692,0.096817758,0.031254665,0.18268651,0.15186502,0.2238264,0.18917069,0.24013712,0.35193722,0.29990237,0.25454572,0.32006082,0.36667297,0.51925807,0.65243334,0.65835565,0.65764543,0.73998576,0.72571312,0.78806452,0.813246,0.67273895,0.91639348,0.80057589,0.75984894,0.69975341,0.76949895,0.71738404,0.63978704,0.72074315,0.65089886,0.60968073,0.62315811,0.52759609,0.35676647,0.35749782,0.41988044,0.44681136,0.32222865,0.37450602,0.52022856,0.29677627,0.23854907,0.30967942,0.31580377,0.3319811,0.34836032,0.28221472,0.20725733,0.17732475,0.56643098,1.0156726999999999,1.2980058,1.1807063,1.1556984,0.99358318,0.97535437,0.98708217,0.85278742,0.75174516,0.46334148,0.13441072,-0.25964984,-0.32621565,-0.18503041,-0.31483822,-0.17385031,-0.28469916,-0.31419911,-0.11395383,-0.21763059,-0.28489491,-0.37540127,-0.20357235,-0.18971566,0.20643706,1.1383223,1.9274837,1.7931925,1.9648668999999999,1.6118943000000001,1.1619883999999998,0.20598994,-0.48716856,0.10776611
31,1.0,2.0516874,-1.1247729,-3.961988,-4.535671,-3.8744134,-2.9287718,-1.5229071,-0.74185127,-0.64636248,0.37556847,0.65630634,0.47949364,0.6622273,0.58375926,0.43312991,0.53341346,0.50715833,0.49039774,0.38185459,0.29940867,0.3540615,0.1700066,0.14950415,0.053064142,-0.031659716,-0.010189758,-0.26799102,-0.36749555,-0.44785994,-0.54830955,-0.73286633,-0.8557804,-0.8628943,-0.90811181,-0.81818119,-1.1202406999999999,-1.0155982,-0.92397802,-0.94926231,-0.92981358,-0.83832698,-0.73065591,-0.53262056,-0.45346627,-0.25634325,-0.21603806,-0.11227562,-0.05414164,0.038006045,0.050809821,0.010382849,0.23901877,0.28828231,0.32788866,0.24566965,0.097388669,0.1159294,0.12655717,0.24799901,0.27811175,0.23103753,0.29010761,0.1995023,0.21796365,0.22695503,0.23873118,0.22495913,0.27056914,0.35700565,0.47355805,0.39864525,0.40072634,0.45769359,0.33187473,0.39150668,0.45269657,0.46773263,0.34189277,0.27942325,0.42170931,0.51081942,0.3430403,0.16387492,0.33814582,0.22684281,0.13574684,0.33705335,0.27996996,0.15755433,0.24139208,0.10374631,0.092996525,0.11501951,0.16298451,0.094624939,0.11087725,0.2265006,0.42498496,0.63383136,0.81247905,0.87532171,1.1798693,1.5112703,1.8001726000000002,1.8517336,1.6901518,1.6241126000000001,1.3231178999999997,1.219373,0.81771408,0.4330508,-0.040025113,-0.3988163,-0.78134003,-0.81499424,-0.85386313,-1.0116631,-1.0369926,-0.91606614,-0.88873283,-0.84868993,-0.91258369,-1.0283219000000001,-1.0251082,-0.97110466,-1.0245287,-0.88675395,-0.85487984,-0.66223778,-0.15454487,0.36899707,0.27474424,0.4271646,1.1423607,1.7771584999999999,1.7245806000000001,1.3424738,1.4093704,2.0068585,1.1986287
32,1.0,-0.97554633,-2.8585281000000005,-4.1158402,-4.442315799999999,-3.5035985,-2.2969862,-1.6306052,-1.3188118999999998,-0.41219366,-0.34015015,-0.34869112,-0.22399994,-0.28836621,-0.30332376,-0.12123061,-0.37508472,-0.30303922,-0.29232691,-0.45338879,-0.35358206,-0.40079342,-0.29361108,-0.3233267,-0.37948176,-0.52066465,-0.53247666,-0.46945532,-0.32489855,-0.54297368,-0.93501868,-0.76705419,-0.69916533,-0.92705257,-0.89326788,-0.87584805,-0.93966304,-1.0437663000000001,-0.97608179,-1.0266224,-0.97623551,-0.84006506,-0.70345798,-0.69577293,-0.45085325,-0.46236512,-0.52022961,-0.30332731,-0.15877275,-0.062157975,-0.041012544,0.10976568,0.18377774,0.0049816997,-0.028877466,0.040113705,0.11315724,0.10100752,0.12935938,0.27310107,0.2552252,0.20205792,0.15071999,0.22175847,0.37793147,0.40581312,0.3688159,0.29252469,0.49596528,0.29958982,0.42820998,0.54648485,0.4416565,0.60956684,0.63466551,0.63481606,0.55931569,0.6503344,0.58900127,0.57414524,0.66220971,0.62185406,0.61826747,0.72652791,0.65716512,0.54339459,0.58437382,0.58800395,0.46282555,0.47660955,0.56709781,0.39228911,0.31756328,0.36116158,0.35786929,0.52780884,0.64146793,0.80876501,0.96423112,1.0821849,1.3374926,1.7362848000000002,1.750016,2.0092554,1.920149,1.9269048999999998,1.8953784,1.7182743999999999,1.5461413,1.160828,1.0358072,0.55873266,0.16032848,-0.010413681,-0.17179739,-0.19367962,-0.048894014000000006,-0.091455101,-0.13070109,-0.14458429,-0.18125262,-0.14086154,-0.18951536,-0.21583094,-0.16762253,0.010495608,-0.094950356,-0.06469346299999999,0.31180093,0.86934293,1.3226345,1.0658188999999998,0.91553591,0.59731058,0.32195449,0.43165581,0.32497712,0.55607019,0.713425,-0.37151223,-2.5624245
33,1.0,-1.1131965,-2.5955147000000003,-3.1798533,-3.9025272000000006,-3.9554928,-3.6207553,-3.0641726,-2.1082956000000004,-1.1680966,-0.99098691,-0.60034265,-0.18821079,-0.046991317000000005,0.042097095999999994,0.016738139,0.044404357,0.036990254,0.029946652,0.04310903,-0.0081649194,0.040193699,0.017780926000000002,0.038316298,-0.034953102,-0.078660285,0.0191131,-0.10185632,-0.074296668,0.055074070999999995,-0.056196538,-0.10082145,-0.09937663099999999,-0.093258707,-0.18256543,-0.17482909,-0.063077609,-0.16174677,-0.13320642,-0.16761463,-0.11869652,-0.12953448,-0.093235074,-0.033130057000000004,0.014064465,0.065631181,-0.022369458,0.05837928,0.23581968,0.18604426,0.16397592,0.18633191,0.22266649,0.2354211,0.31096986,0.24721346,0.17560516,0.14380087,0.13026644,0.15210373,0.25999969,0.1252796,0.13325978,0.07454342,0.0085236219,-0.027089164,0.059127295,-0.00053824025,0.027294147,0.0058091801,-0.012284073000000001,0.033983155,0.017887855,0.052728286,0.11796099,0.11059913,0.20426024,0.27049019,0.19452214,0.22351117,0.3251274,0.33655282,0.35443628,0.39330787,0.46002914,0.44777732,0.55547434,0.56575895,0.48156987,0.72179946,0.83990461,0.92431683,1.0948274,1.2039808,1.4851375,1.586075,1.8632917000000002,2.1467627,2.2660109,2.1571333,1.9219324,1.7538246,1.6840475,1.2457143,1.0665984,0.69847942,0.37266021,0.065788903,-0.0026047151999999997,-0.13179058,-0.34683502,-0.23986643,-0.35153057,-0.30872031,-0.30653051,-0.3711767,-0.39627179,-0.41195227,-0.36133722,-0.39121674,-0.32907582,-0.37520565,-0.37332491,-0.33751434,-0.22563728,-0.18421968,0.15146167,0.63711967,1.1237006999999999,1.1960628999999998,1.1016339,0.93172176,0.64252457,0.25411815,-0.061549465,-0.47911645,-0.57176856,-0.18248723,-0.71496633,-1.3094152000000001,-2.6224488999999997
34,1.0,-0.88750742,-2.8498642999999997,-4.010189700000001,-4.4802127,-3.9988203999999996,-2.9861807000000002,-1.7819305,-1.5224084999999998,-0.94615557,-0.25879851,-0.16185861,-0.20074014,-0.24005594,-0.25273784,-0.19803911,-0.31391529,-0.27569446,-0.24538511,-0.27564092,-0.35968735,-0.38876659,-0.33841163,-0.40855412,-0.4317817,-0.36550572,-0.52444435,-0.46527975,-0.43124138,-0.63290932,-0.70451843,-0.71831766,-0.64118488,-0.74670577,-0.78734145,-0.74410808,-0.82871805,-0.79865068,-0.71163879,-0.65899442,-0.60871498,-0.63965408,-0.50006064,-0.41098218,-0.414787,-0.27799746,-0.21174401,-0.1265433,-0.12825838,-0.090719412,-0.054838725,-0.028155244,-0.0011991732,0.01837661,0.05205989900000001,0.04602255400000001,0.11196684,0.13669017,0.12328681,0.19827627,0.19878982,0.31635865,0.27549011,0.24939203,0.36500694,0.26700338,0.35589169,0.42261596,0.49922654,0.49123733,0.50685545,0.66958477,0.61605362,0.70050493,0.72094095,0.71046509,0.67864201,0.6552116,0.59693461,0.63273375,0.64456174,0.58581993,0.53295591,0.49216698,0.54345787,0.53474156,0.49365639,0.48886404,0.42343527,0.39628545,0.38949756,0.35699971,0.4176558,0.37364719,0.40311925,0.38802013,0.34236651,0.56503948,0.62665981,0.80846874,1.082001,1.2914403,1.3955501000000001,1.6229765,1.981614,2.1544387,2.0531147,1.8642371,1.6158405,1.4323813,0.9734102,0.86213415,0.61400474,0.12728991,-0.19214011,-0.25907359,-0.30503263,-0.415476,-0.40146016,-0.35405563,-0.3870714,-0.39625323,-0.43760303,-0.36926164,-0.47843716,-0.48748674,-0.38409419,-0.42586848,-0.38469455,-0.34668808,-0.16198381,0.35530804,0.62367267,0.65084543,0.92134939,0.93914798,0.84124794,0.9149299,1.3762036,1.7658331000000003,-0.62877799
35,1.0,4.0330039,3.2977752000000002,0.44175171,-1.7394736000000002,-2.9877965,-3.647033,-2.9648595,-1.3267808,-0.74160412,-0.6893671,0.87286393,1.1260691,1.009475,1.0034131,1.1606733,1.1046526,0.95789182,1.0362072,1.005249,0.9051232,0.96470662,0.80317287,0.69870117,0.77864454,0.74247721,0.52216345,0.54602591,0.50039452,0.42992389,0.28060313,0.1410292,0.010500043999999998,-0.068390198,-0.27987846,-0.30341527,-0.26624045,-0.32149601,-0.20645139,-0.32366376,-0.20050688,-0.33791852,-0.22837519,-0.29563573,-0.10637537,-0.078322692,0.15936447,0.19786245,0.22006866,0.33757876,0.31536868,0.43824669,0.36906979,0.49282131,0.54030706,0.42506558,0.47954717,0.46950155,0.47284467,0.558003,0.60220795,0.49534385,0.57559462,0.39151215,0.37709457,0.31093708,0.3063618,0.42295211,0.44216773,0.53967751,0.50183037,0.51731232,0.55654422,0.50029581,0.51704835,0.55200523,0.64802623,0.49458497,0.44401086,0.4107395,0.5337729,0.53464353,0.48696389,0.36654836,0.33220831,0.31876939,0.22850262,0.027992957000000002,0.093574514,0.16870274,0.066297608,0.017952041999999998,-0.030339257999999997,-0.24586529,-0.1518132,-0.17204827,-0.25624016,-0.38010846,-0.43529911,-0.39395719,-0.46636016,-0.23688923,-0.18480109,0.10626853,0.37560965,0.34858638,0.21013733,0.52145964,1.0050158000000002,0.97415659,0.45115622,0.14924716,-0.032422783,-0.055425327999999996,-0.10918673,-0.37092696,-0.70515613,-1.2666621999999998,-1.5869162,-1.7893621,-1.6471101000000001,-1.7832942999999999,-1.674779,-1.6836801,-1.7032147000000002,-1.8489936999999999,-1.7905387,-1.7328556,-1.6938788,-1.5400431,-1.6537002,-1.6443605,-1.4600771000000001,-0.80268771,-0.55022048,0.12779698,0.2497508,0.76857777,0.29955751,0.26685559,0.70830499
36,1.0,-0.18130215,-1.9336129000000002,-3.1599367999999997,-3.9662888999999995,-3.8411202000000007,-3.0650646,-2.1180342,-1.7054979,-1.3264876,-0.69456,-0.52813371,-0.5093423,-0.47478446,-0.48451728,-0.45734467,-0.57126632,-0.55813942,-0.57365314,-0.53542656,-0.41313335,-0.55458761,-0.62727417,-0.64676519,-0.64414709,-0.69959303,-0.77009961,-0.72442087,-0.8130478,-0.85561002,-0.94377639,-0.9695956,-0.98465369,-1.0393819,-1.0460200000000002,-1.0249788,-1.0228184,-1.0611229,-0.99175235,-1.0210156,-0.98275679,-0.81293002,-0.69274602,-0.65926644,-0.57800913,-0.44271964,-0.31606772,-0.26604651,-0.21420455,-0.1911069,-0.15925712,-0.16878472,-0.13438121,-0.07352859099999999,-0.09347634199999999,-0.088953047,-0.064602096,0.039445892,0.045911562999999996,0.026675432000000002,0.086476419,0.17628019,0.13555855,0.15533866,0.19872739,0.25536876,0.38610582,0.25535949,0.32001009,0.43024489,0.47811135,0.4424608,0.36036397,0.55191454,0.53049931,0.58642623,0.59133495,0.5768059,0.63316104,0.59525022,0.59375428,0.55264778,0.59345657,0.64350074,0.49711552,0.56139896,0.52591005,0.4562767,0.46861904,0.49950118,0.49519973,0.47114855,0.47117023,0.56590812,0.55943194,0.4654606,0.62302432,0.80328116,0.87710192,1.1062738,1.3051766000000002,1.4134803,1.5944034,1.7790069,1.8940427,1.7907886999999998,1.7819552,1.6448720000000001,1.5436444,1.3115412,1.0192544,0.84117458,0.430925,0.06987765900000001,0.006475765200000001,-0.063887683,-0.093671196,-0.058039069000000006,-0.012031696000000001,-0.074624064,-0.048117087,0.043437996,-0.09552041300000001,-0.071134704,-0.072860676,0.10667576,0.016055289,0.010116785,0.17104723,0.4964272,1.1963556999999998,1.37147,1.0983306000000002,1.2206663,1.2910098,1.2573079,1.0281975,1.2412591999999998,1.4279848999999998,0.83751113,-0.86145357
37,1.0,-1.4078411,-3.3302788999999997,-4.3421822,-4.5207111,-3.9162837999999995,-3.0055655,-1.6352593,-1.0110165999999998,-0.76356873,-0.036982698,0.11613741,0.22664985,0.18058551,0.20239758,0.21960744,0.22813365,0.25793454,0.09143186699999999,0.20009472,0.20001753,0.071556934,0.045146444,-0.089972018,-0.029998028,-0.094007983,-0.088403304,-0.15888986,-0.18398883,-0.18602085,-0.38529706,-0.35736972,-0.38204316,-0.37386582,-0.38512163,-0.43762372,-0.456262,-0.39806862,-0.45079034,-0.34335913,-0.36671664,-0.37575004,-0.19279399,-0.25167842,-0.14230971,-0.011798691000000002,0.09532480900000001,0.12680828,0.18168288,0.16272688,0.23773954,0.14749717,0.13226551,0.20954584,0.067991282,0.18187529,0.20032044,0.16911868,0.18246677,0.15963617,0.20421062,0.2557488,0.074536122,0.16960721,0.22324649,0.17954923,0.28908163,0.37895962,0.40809968,0.39602355,0.43205556,0.55970784,0.50747339,0.52654356,0.51461304,0.58416228,0.57892062,0.52844258,0.58009948,0.49732737,0.41041378,0.50265156,0.48823922,0.42845436,0.44563147,0.38255081,0.37633534,0.29046021,0.32452613,0.27989189,0.27077255,0.29311907,0.35295515,0.46392664,0.47416738,0.61106131,0.8209855,0.95607059,1.0837291,1.2145411,1.3832277,1.6810718999999998,1.7885830000000003,1.8072881,1.6848883999999997,1.4573456,1.3922687,1.2006668,0.95103595,0.72892735,0.34277688,0.035100406,-0.2239641,-0.36874636,-0.36660271,-0.4273363,-0.37885876,-0.55945457,-0.4781156,-0.51562766,-0.47728344,-0.49562955,-0.47260408,-0.42300428,-0.50362997,-0.46954814,-0.48813853,-0.45083548,-0.21957842,0.41266243,0.80256201,0.70261149,0.89342296,0.88954162,0.68356376,0.40863709,0.18963373,0.5659392,0.028656597000000002,-1.5174551,-3.735764
38,1.0,0.80637506,-1.4427522,-3.3786345,-4.2328873,-4.0587169,-3.4562712999999996,-2.5547402999999997,-1.7151302,-1.5477201,-0.9127932,-0.32742464,-0.40364967,-0.39621876,-0.39767491,-0.4031443,-0.33996209,-0.38898749,-0.41258744,-0.40456637,-0.48428935,-0.461374,-0.46450581,-0.4639842,-0.57256232,-0.56418646,-0.53199764,-0.5992073,-0.61376035,-0.64880377,-0.70406273,-0.68411923,-0.78412719,-0.70762955,-0.81252476,-0.78307178,-0.81677826,-0.86376,-0.76532728,-0.72473922,-0.72797925,-0.7124863,-0.64381743,-0.58495855,-0.48720036,-0.41473662,-0.33067797,-0.26833999,-0.15344485,-0.088530494,-0.11301936,-0.058053425,-0.053728631,-0.036970403,0.0086891457,0.034765056,-0.0190528,0.039960581,0.094153745,0.052118624,0.13131345,0.15361671,0.09408789099999999,0.13447612,0.23436162,0.24453603,0.22088375,0.33859678,0.3272392,0.39912345,0.4283172,0.45714278,0.5173705,0.65489352,0.56163155,0.5598507,0.59087721,0.62891906,0.57863885,0.6107128,0.57844209,0.53796307,0.5185013,0.42030754,0.55293795,0.52225796,0.55166177,0.4825222,0.4535142,0.43136553,0.42131553,0.42293337,0.35084786,0.36292411,0.52891416,0.62474235,0.73413909,0.83633703,0.97737549,1.1462736999999998,1.3084018999999998,1.5478819,1.7792327000000001,1.8555110000000001,1.8100858,1.7329941000000002,1.6495112,1.3817146,1.2302334,0.95222041,0.6647318,0.35717947,0.021101234,-0.061821469000000004,-0.12759449,-0.22561308,-0.17590428,-0.23535692,-0.17349362,-0.16712883,-0.22882055,-0.20996265,-0.10166975,-0.19603451,-0.18935527,-0.16850374,-0.12176748,-0.11065239,-0.09254222699999999,0.29327572,0.84573243,0.84503068,0.87546334,1.1263485,1.1681294,1.1386028,0.98742704,1.4723108,1.9848366000000002,1.2043256000000002,-1.4863195
39,1.0,-0.96966351,-2.6475002,-3.2456845000000003,-3.9753085,-4.3731837,-4.1820347,-3.1214237999999996,-1.9529889999999999,-1.6334928999999998,-1.0565331,-0.45289108,-0.26682181,-0.3490049,-0.49008122,-0.39431015,-0.4350707,-0.33886922,-0.4229171,-0.34420197,-0.29784049,-0.36450624,-0.25664736,-0.29878858,-0.29695104,-0.25380374,-0.37966258,-0.32413341,-0.31794736,-0.38935198,-0.40948827,-0.3045847,-0.29723986,-0.28159865,-0.21530357,-0.28251878,-0.25058817,-0.27335091,-0.16869763,-0.18989808,-0.18628574,-0.1062366,-0.027045984,-0.034976606,0.05731427,0.09903278300000001,0.077651693,0.08275222,0.1423739,0.12595991,0.09883792400000001,0.11900619,0.17081385,0.18142266,0.059170840999999995,0.031259913,0.08914631099999999,0.072047499,0.16687122,0.16841168,0.12335562,0.064539334,-0.066680293,0.071563813,0.07316629,0.055174241,0.017144205,0.12230014,0.1942568,0.21533944,0.19616028,0.26659582,0.2675186,0.34792473,0.40010631,0.4069066,0.36830014,0.45667369,0.5636561,0.57777391,0.59014915,0.53335032,0.5873473,0.58219666,0.48054073,0.55652582,0.5796082,0.46833097,0.46035458,0.42997808,0.45379058,0.46280337,0.37768477,0.40398449,0.53606445,0.64796547,0.78208647,0.93356008,0.96018245,1.2527222,1.4399872,1.55082,1.7250321,2.0159257,1.8627383000000002,1.7769971999999998,1.7052221999999997,1.4656809,1.2772872,1.122819,0.86388074,0.69826976,0.39257105,-0.0095497937,-0.14482801,-0.14267602,-0.14597325,-0.19281344,-0.14663939,-0.15092434,-0.10562109,-0.18631115,-0.20965372,-0.2660479,-0.22591022,-0.077916495,-0.14515543,-0.15953259,-0.13305922,0.17387527,0.8053924,1.3528536,1.3563927,1.300849,0.8165687,0.29867509,-0.44596967,-1.0324127,-0.94179617,-0.15494295,-0.66775082
40,1.0,1.3318458999999998,-0.20744396,-2.2523365,-3.7257047999999995,-4.521792,-4.4196387,-3.8621479,-2.6561342,-1.4352046,-1.2368395,-0.62658668,-0.073564242,-0.044211966,-0.10068287,-0.066337377,-0.0094492307,-0.07603149299999999,-0.10068068,-0.12351584,-0.16498549,-0.10473542,-0.10590189,-0.07818111700000001,-0.23225343,-0.2931815,-0.36496115,-0.30445186,-0.35627342,-0.51898289,-0.39836579,-0.41427295,-0.52640748,-0.68771184,-0.66038465,-0.78100676,-0.74777064,-0.81466401,-0.73862717,-0.66763363,-0.80523454,-0.70708199,-0.69428596,-0.63211996,-0.48777131,-0.54191592,-0.38531362,-0.23989584,-0.26724709,-0.07428513099999999,-0.028457002999999998,-0.019365445,0.034778144,-0.048117787999999995,0.012541316,-0.0076046444999999996,0.057419757,0.11616285,0.18907968,0.13204745,0.10426478,0.12116091,0.23539459,0.18559797,0.18067013,0.25769229,0.22185212,0.22400322,0.26116574,0.32188765,0.35496107,0.45126891,0.40917292,0.43451434,0.53492383,0.47289089,0.60586861,0.49002253,0.44426794,0.55258654,0.4153966,0.40168173,0.45016446,0.55695265,0.41063141,0.44710414,0.3229599,0.33672239,0.25635461,0.25377523,0.26222461,0.29571844,0.28632018,0.26871727,0.4004952,0.39076145,0.42465489,0.69909019,0.86590734,1.1479741,1.141294,1.3111443,1.5586716999999999,1.701241,1.8350293999999998,1.8023338,1.7296491999999999,1.6073902,1.3836396999999998,1.2129518999999997,0.89875097,0.71433164,0.37977986,-0.042079273,-0.26924199,-0.30888886,-0.35877451,-0.23630978,-0.34440606,-0.36456465,-0.26380139,-0.32005344,-0.36067685,-0.329241,-0.28937097,-0.34651744,-0.31396983,-0.23667804,-0.21666988,-0.19690314,0.1462593,0.4643491,0.68990612,0.52903477,0.84214918,0.99823965,1.1600555000000001,1.301663,1.1275118999999998,1.511893,0.55698103
41,1.0,2.5301978,1.6498150000000003,0.24704559,-1.1660573,-2.5288239,-3.4357297,-2.940386,-2.0651392,-1.2429857,-1.2938225,-0.40419363,0.10777628,-0.09341953900000001,-0.040601366,-0.091924845,-0.21060304,-0.10737597,-0.1606342,-0.082192895,-0.20364305,-0.25012435,-0.1963208,-0.35536639,-0.37851417,-0.58278881,-0.48392,-0.53331798,-0.69797111,-0.76195629,-0.74684632,-0.78594305,-0.92877939,-1.0205683,-1.185065,-1.1548856,-1.1926446000000002,-1.3614823999999999,-1.3449343,-1.4349317,-1.3588421,-1.3457746000000002,-1.4262574,-1.3288107,-1.1680128,-1.1210572,-1.0783637,-0.86149562,-0.88688235,-0.7255375,-0.6877706,-0.53931235,-0.48213925,-0.55951735,-0.31381457,-0.21148854,-0.20334998,-0.3357919,-0.18149048,-0.19732918,-0.2163613,-0.15319996,-0.17215797,-0.11592228,-0.14554027,-0.12546175,-0.15937986,-0.058374659,0.0080801872,0.013753422,0.09371218099999999,0.1681219,0.21601909,0.3012181,0.19303108,0.35547325,0.32472339,0.25310833,0.45210687,0.44504825,0.44887234,0.48841478,0.59331307,0.42178921,0.63936062,0.4503092,0.42483612,0.45882351,0.49119938,0.4397051,0.28053859,0.32985919,0.28769871,0.38032528,0.19334777,0.22227629,0.37256665,0.36013569,0.32724046,0.57489721,0.91223388,1.0883794,1.2321256999999999,1.3214291999999999,1.5695447,1.8907531000000002,2.2115668,2.1653592999999995,2.1983776,1.9514565,1.8902202000000001,1.5342648,1.3431904,1.1241117,0.62466506,0.059651185,-0.22517658,-0.30641609,-0.35673317,-0.34559594,-0.31686423,-0.3608442,-0.32778952,-0.2412692,-0.30263827,-0.24710008,-0.30826396,-0.13804887,-0.27913714,-0.1107207,-0.10783543,0.35675561,1.0558481000000002,0.94573508,0.97940066,1.3423589,1.4253143,1.7705796000000003,1.4247711,1.6178229,2.0171071
42,1.0,-1.7996218000000002,-3.0549367999999997,-3.4604629,-4.198044,-4.1706936,-3.9319332,-2.7748847999999997,-1.7579852999999999,-1.4891038,-1.0237235999999998,-0.58008827,-0.47147207,-0.44773263,-0.33594971,-0.47798645,-0.47666775,-0.34662355,-0.21022555,-0.20964771,-0.2154654,-0.32019897,-0.31994017,-0.29856241,-0.33042582,-0.30778443,-0.2139244,-0.24596692,-0.31726095,-0.26804542,-0.28969085,-0.27494473,-0.24940231,-0.23705018,-0.23640076,-0.38428138,-0.35450838,-0.33963979,-0.35685443,-0.25643726,-0.19244984,-0.21740754,-0.12781257,-0.1255217,-0.023737543,0.12767953,0.1369368,0.11355978,0.17847249,0.1855041,0.024157246,0.12576553,0.081849227,0.12238591,0.14474661,0.069362075,0.064103758,0.09931765699999999,0.054408606,0.046884075,0.16525239,0.12565856,0.16860946,0.095566261,0.14939267,0.20656448,0.11921093,0.066758222,0.13004277,0.18082257,0.30769563,0.27259293,0.33904663,0.46700712,0.32878122,0.41229987,0.53109941,0.5114296,0.58782022,0.47623627,0.43587451,0.55123589,0.67595673,0.62172992,0.53760951,0.63118347,0.67685842,0.55158354,0.52636461,0.51301894,0.45949162,0.4234697,0.53756315,0.53809758,0.4736116,0.54352337,0.58057381,0.4067318,0.71484177,1.1290176,1.5623163999999998,2.0399034,2.3354772999999995,2.2810005,2.1411182999999996,1.8185443,1.6221843,1.5214284,1.2135877,0.89182363,0.52035842,0.26276226,0.09835177199999999,-0.1556438,-0.13849165,-0.17431054,-0.17977228,-0.19672971,-0.1797607,-0.16889859,-0.18630902,-0.20293718,-0.24149446,-0.20954825,-0.18162154,-0.17463074,-0.1500999,-0.11826223,-0.056793998,0.32428186,0.8937073,1.0832647,0.90738387,0.71551748,0.22860818,-0.08589069199999999,-0.27950915,-0.39448702,-0.15570341,0.36745446,-0.22204027
43,1.0,1.5226928,-1.7944978999999999,-2.8401591,-4.3934343,-4.3713558,-3.0942388,-1.3050691,-0.52960948,-0.34224384,0.79882078,1.4086608999999999,1.1713782,0.95145247,0.96248355,0.90044778,0.91664654,0.95709351,0.76607904,0.70898986,0.65739646,0.48319973,0.42951331,0.28518219,0.29050527,0.29253959,0.18371265,0.15222729,0.15174456,-0.051536777,0.048596507000000004,0.14312896,0.05257720900000001,0.01793924,0.1156918,0.028689284,-0.047447317,-0.13829182,-0.08029439299999999,-0.14777531,-0.19755095,-0.25468471,-0.22827451,-0.16865296,-0.074873167,-0.1281753,-0.080544267,0.15773238,0.00035975787000000004,0.1050641,0.048588642,0.038796164,0.04809166,-0.062801387,0.025235026,0.2910891,0.020493402,-0.0033043434,-0.20885528,-0.11096084,0.035136627999999996,0.071778866,-0.0741811,-0.15258383,-0.16617989,-0.1771611,-0.16599114,-0.22526035,-0.1961259,-0.13251782,-0.17799362,0.12323469,0.24716071,0.29635305,0.19920197,0.1141433,0.039014648,0.10593119,0.28547773,0.33824414,0.22760808,0.3295474,0.30920551,0.17487649,0.41003377,0.24212232,-0.0004901163200000001,0.098949966,0.061375592,-0.17570748,-0.29331108,-0.19281783,-0.033237526,-0.042689673,-0.20148938,-0.35141442,0.034036581,0.20644243,0.27282773,0.53565464,0.85953446,1.3088193000000001,1.7891651000000002,2.2256575,2.2250914,2.3871226,1.8813484,1.3609753,1.3706326000000002,0.95116769,0.51352295,0.049736612,-0.52677321,-0.97314089,-1.0917940000000002,-0.96697875,-1.0734472,-1.0901375,-1.1911648000000001,-0.96838939,-0.98179936,-0.90366295,-0.97879681,-1.0713483999999998,-0.95549915,-0.88101371,-0.94676641,-0.84579042,-0.60982898,0.030574692999999997,1.1866643,2.0657094,1.6145585,1.3371478,0.7751203,0.46530765,-0.23796652,-1.2472544,-1.7062336999999999,-0.52136018,-1.106123
44,1.0,-0.72451891,-3.1532139999999997,-4.1841461,-4.2699354000000005,-3.5790773999999996,-2.6474492,-1.6862645,-1.4769993000000001,-1.1528263,-0.44669584,-0.36045688,-0.38622151,-0.37867585,-0.3843182,-0.34509662,-0.35359901,-0.3976153,-0.40850488,-0.3425786,-0.42197486,-0.48484824,-0.47593643,-0.45512678,-0.49905199,-0.57322521,-0.53881326,-0.61830969,-0.60282685,-0.71731432,-0.75172383,-0.82201914,-0.86192805,-0.86874473,-0.87189731,-0.97956497,-0.84520316,-0.88686602,-0.90376774,-0.81597818,-0.88180053,-0.8235579,-0.75356859,-0.68749874,-0.62258646,-0.49486498,-0.32351761,-0.24576293,-0.16677996,-0.1236654,-0.16028109,-0.04513102099999999,-0.023588442999999997,0.028105255,-0.1004739,-0.07344513400000001,0.056018440999999995,0.018184523,0.043579982,0.012581948999999999,0.059610539000000004,0.092578976,0.062768773,0.11156245,0.27002818,0.20576682,0.19533597,0.32785344,0.30445871,0.32098764,0.3146046,0.41085287,0.46984717,0.61845882,0.56392483,0.54655234,0.54666591,0.53554217,0.54391206,0.59967124,0.47419724,0.44456502,0.50486248,0.48268231,0.48778046,0.47711817,0.53582456,0.36171921,0.39453773,0.36696001,0.45734374,0.37521363,0.34714922,0.49057657,0.33473193,0.39975761,0.51796155,0.78964889,0.92895566,1.0502871999999999,1.0890555,1.4299292,1.6654048,1.7936893,1.797421,1.7837017,1.7335337,1.5457802999999999,1.3279876,1.1696046,0.95407861,0.63429698,0.39883286,0.049127192,-0.13564862,-0.20830356,-0.23275119,-0.09437125,-0.17846742,-0.21076973,-0.068288575,-0.067398913,-0.10534089,-0.09184962,0.0012101534,-0.14828061,-0.07194845799999999,0.01312796,0.031068967000000003,0.14362304,0.42082917,0.94416169,1.1519151,0.98637542,1.1645751,1.2720966,1.0647662,1.1497773,1.3717458,2.0495151000000003,1.1946983999999998
45,1.0,-0.75997511,-2.3594412,-2.8690162,-3.5928041,-3.8624214,-3.3406173999999997,-2.3560988,-1.7877071,-1.4112415,-0.73043578,-0.69486753,-0.83713098,-0.75747091,-0.64832531,-0.63679267,-0.54874136,-0.60206156,-0.62226718,-0.48120676,-0.23514668,-0.19536389,-0.35093589,-0.67320792,-0.86214539,-0.67313885,0.016272855,0.062470465999999995,-0.90714224,-1.1278708,-0.89889125,-0.73368621,-0.64171458,-0.47593087,-0.51485202,-0.52804026,-0.4129911,-0.35006258,-0.21776959,-0.21962111,-0.21775363,-0.18439081,-0.091318035,-0.051885663,0.021084391,0.059326265,-0.13047417,-0.17331017,-0.03416935,-0.1159593,-0.13652797,-0.27587158,-0.25954769,-0.13203657,0.15375238,0.15211525,0.16166834,-0.014208624,-0.40431923,-0.55806862,-0.1499721,0.09250217300000001,0.032526856,-0.12539004,-0.10727501,0.039566297,-0.10696776,-0.15129714,-0.13889894,0.078245442,-0.037330583,-0.11039281,0.07191327,0.1987352,0.44222226,0.8892387,0.41812692,0.38898103,1.1548095,1.2574530000000002,0.37482372,-0.14383826,0.34146817,0.5359454,0.26547418,0.12414307,0.1036353,0.36724667,0.37778478,0.59988438,0.77881134,0.41456054,0.61524653,0.64295867,0.66106007,0.66877437,0.28443183,0.61747042,0.76328681,0.83278905,1.3811761999999999,1.0557113,1.0219893,1.8611643,1.99354,2.1449341,2.2484666,2.1465205000000003,2.17502,1.7701363,1.3211306999999999,0.89975688,0.91035003,0.52339598,0.14772989,0.48279133,0.41008379,0.2003343,0.21061517,0.43640968,0.3285478,-0.11271494,0.41338644,0.23070036,0.025217627000000003,0.13909232,0.41135018,0.17802639,0.11721459,0.6059287,1.332415,1.6856209999999998,1.4768681000000001,1.3424006000000002,0.76936151,-0.072713649,-0.80370821,-1.3317298,-1.0905343,-0.26791095,-1.0105426
46,1.0,0.31225911,-1.4217899,-2.4950947,-3.7593623,-4.2167585,-3.7458013999999995,-2.6005045,-1.8382462,-1.6499258999999997,-1.0714832,-0.37498475,-0.39033728,-0.4677294,-0.50461116,-0.54098185,-0.46458262,-0.32228762,-0.48285555,-0.53463395,-0.45257924,-0.47978269,-0.46397213,-0.46636503,-0.54883924,-0.60549466,-0.56627003,-0.61264655,-0.70712715,-0.74451541,-0.71769331,-0.70758832,-1.0401782,-1.0173642,-1.0914081,-1.04605,-0.96092966,-1.0164467,-0.96484519,-0.89395245,-0.92561478,-0.89718591,-0.90503616,-0.6730327,-0.64403888,-0.37236543,-0.37075248,-0.45929174,-0.28765031,-0.3084606,-0.21186656,-0.069690921,-0.054265488,-0.056961261,0.022731342,-0.13288783,-0.13029105,-0.041794626,-0.011019309,0.1669886,0.26755389,0.38467806,0.20050232,0.085083884,0.27895154,0.31374329,0.48279416,0.50185399,0.57034144,0.57935552,0.48524738,0.47823034,0.57073968,0.65809504,0.62906018,0.68549994,0.72265613,0.60286004,0.55494638,0.57210939,0.55285852,0.48529717,0.55354282,0.57764044,0.48966688,0.53482394,0.51036551,0.40649562,0.44928877,0.42385789,0.4644188,0.35832989,0.46208683,0.48341485,0.42577874,0.36251352,0.38022537,0.42726283,0.5621498,0.80467995,0.91443495,1.1043326,1.2382034,1.4868968,1.6105246000000002,1.8800571,1.8727218,1.8129944,1.7556193,1.5530203000000002,1.3030123,1.2288816,0.97575536,0.5650208,0.21990429,-0.050321038,-0.16675051,-0.21473463,-0.17829722,-0.11153358,-0.14090303,-0.20312418,-0.18234529,-0.18934534,-0.112099,0.020531931,-0.020970039,-0.18460088,-0.21980349,0.11861618,0.40489028,1.0377209,1.3798353,1.4790896999999998,1.5363065,1.3636839,0.88175411,0.52973898,0.47028545,1.3957707000000001,0.53246986
47,1.0,-0.42883001,-2.0266359,-2.6831572999999995,-3.7695858,-4.3215094,-3.8708699,-2.5982947999999997,-1.6098526000000002,-1.3624927,-0.81778769,-0.28193981,-0.3440265,-0.38295808,-0.26416464,-0.25019093,-0.26466849,-0.19384674,-0.17333065,-0.18470575,-0.17083095,-0.23281161,-0.3353405,-0.2173162,-0.2392879,-0.31044739,-0.15493738,-0.25436616,-0.34828211,-0.22839172,-0.30790222,-0.3639027,-0.38221933,-0.4120967,-0.34244807,-0.38714094,-0.27378079,-0.33073429,-0.32968457,-0.29356078,-0.34182263,-0.18277188,-0.17083908,-0.069210725,-0.00050355203,-0.077739103,0.087080336,-0.014274505,0.065469206,0.029432247,0.014763195,0.064778353,0.055223876,0.11844073,0.11861693,0.20534029,0.13759249,-0.013383046000000001,0.09903049,0.13878653,0.16280476,0.13104844,0.10611507,0.12876983,0.10831304,0.19211573,0.29874497,0.1883417,0.32177386,0.41585016,0.33732704,0.38712641,0.40108022,0.47786222,0.42246028,0.52097065,0.52230968,0.58570023,0.61269824,0.49541061,0.51472613,0.50181225,0.53870272,0.52913787,0.4254003,0.49377526,0.48672602,0.44685218,0.45121719,0.43670027,0.4223769,0.30791364,0.46002605,0.34735447,0.28354477,0.36289235,0.44557048,0.67862966,0.87620467,1.096409,1.2556949,1.4460926,1.8696205000000001,2.1394106,2.1412021,2.0186931,2.0290181,1.9233518,1.6081366000000001,1.4008726,1.2408863,0.87333965,0.51125445,0.09392431,-0.20689227,-0.35550943,-0.26450975,-0.20350117,-0.28995863,-0.26145649,-0.27844995,-0.29889247,-0.36311266,-0.31880906,-0.1002476,-0.24305396,-0.31099611,-0.21114593,-0.19256654,-0.1183216,0.19329053,1.1954945,1.867572,1.5209803,0.74713605,-0.24830953,-1.4244811000000002,-2.1664543,-1.9435835,-0.85489398,-0.86330045
48,1.0,-0.79574719,-2.6890007000000002,-3.7405361000000004,-4.6411689,-4.251693599999999,-3.0196011,-1.5802521,-1.4595078000000001,-1.0010282,-0.15093543,-0.20838389,-0.15346719,-0.18421232,-0.11425564,-0.11195251,-0.056843187999999996,-0.047458889000000004,-0.021852121000000002,-0.20278169,-0.13462581,-0.098666459,-0.24799523,-0.32247823,-0.1269465,-0.19290868,-0.37519555,-0.35828572,-0.40237741,-0.33939191,-0.38026959,-0.51906809,-0.41967212,-0.54896964,-0.47914575,-0.46518478,-0.49702455,-0.59516272,-0.72727775,-0.61701089,-0.47900945,-0.58087171,-0.54252682,-0.52649251,-0.37820891,-0.2853643,-0.28263725,-0.1290583,-0.09633282300000001,0.048432950999999995,0.055928654,0.06698185200000001,0.18598964,0.13238473,0.20103761,0.18786495,0.08088727700000001,0.13280124,0.09460283300000001,0.25231948,0.21168034,0.20680472,0.27899011,0.3190768,0.15308514,0.27666344,0.39581834,0.15996357,0.25730506,0.47745776,0.6300881,0.59002497,0.47972638,0.74071953,0.71328977,0.60313867,0.73951436,0.67121804,0.86701374,0.76686501,0.66702735,0.61919197,0.57216901,0.48442153,0.59500755,0.66830662,0.62479567,0.59504139,0.44615054,0.43149687,0.48133066,0.3857064,0.4389244,0.26204772,0.3371084,0.36830487,0.37975904,0.49775553,0.65987289,0.89457685,0.87966138,0.99382719,1.4272582,1.6527196,1.8285933999999997,1.9736273999999998,1.8965021,1.8333306,1.5250233999999998,1.2697528999999999,0.90262917,0.51989912,0.26395093,-0.12672078,-0.30456063,-0.36780121,-0.26583823,-0.44839698,-0.40566381,-0.32545102,-0.41170652,-0.41551252,-0.42042969,-0.3507177,-0.32357389,-0.29684289,-0.32638479,-0.22018091,0.044054392000000005,0.50237912,1.2250549,1.2470421,1.1835993,1.4325971000000002,1.1007608999999998,0.40030418,-0.39573891,-0.4382137,-0.30732491,-0.74352655,-3.0158139
49,1.0,1.9475901000000002,-0.18907422,-2.4198756,-3.5628922999999997,-4.9383539,-4.8596817,-3.2832337,-1.8879013999999998,-1.5551018,-0.49271595,0.40393137,0.40383664,0.27763195,0.36808281,0.42406306,0.26052685,0.36053673,0.12140982,0.30042045,0.22133224,0.10403123,0.10823821,0.16711018,0.077517582,-0.083158578,0.028642925,-0.20400714,-0.35466736,-0.49682924,-0.3831997,-0.49566997,-0.72947896,-0.73041096,-0.72159043,-0.86847456,-0.99994354,-0.99115428,-1.0191502000000001,-0.90373367,-0.8731598,-0.80452611,-0.91746064,-0.78631568,-0.72855547,-0.47034772,-0.43061252,-0.33545574,-0.1309895,-0.25489694,-0.043666468,-0.05391456,0.057846775,0.090526235,0.083367314,-0.003391555,0.18667775,0.17448335,0.042002532,0.16876969,0.18942606,0.19296278,0.16570654,0.18653658,0.31876939,0.33736702,0.3650433,0.36325523,0.45511124,0.53773559,0.60595144,0.62288128,0.65132714,0.68816847,0.77838518,0.81466864,0.69180918,0.84360926,0.71909325,0.86900057,0.69616965,0.6609539,0.55266938,0.69808975,0.5514348,0.56273271,0.55562762,0.57267561,0.30141638,0.25844392,0.34274149,0.12655971,0.26431338,0.080368849,0.21314062,0.19693458,0.11163321,0.22615772,0.17187357,0.15205425,0.18762498,0.12884919,0.19643273,0.3727223,0.3337385,0.7274102,0.89954949,1.0790635,1.3926671999999998,1.5768357,1.4520663999999999,1.0997763999999999,0.80044548,0.61274701,0.59240494,0.78349066,0.52657382,0.070926162,-0.34705296,-0.54095132,-0.59399111,-0.67843615,-0.63883748,-0.64631054,-0.77365892,-0.68007299,-0.65230015,-0.44218169,-0.54334555,-0.61151404,-0.44853826,-0.36734259,0.32265002,1.1837696000000002,1.1279823999999998,1.5738246999999999,1.6277243000000001,1.6086986,0.95579797,0.086935209,0.57604342
50,1.0,-2.0042969,-3.5442286,-4.3592847,-4.376565599999999,-3.9738712,-3.2647682999999996,-2.0391751,-1.548635,-1.1514411,-0.62275958,-0.45158603,-0.44674802,-0.41832184,-0.38520514,-0.32163747,-0.39710119,-0.33643843,-0.37522155,-0.36551254,-0.35520108,-0.43252012,-0.41475616,-0.37797345,-0.48849151,-0.43074973,-0.36312846,-0.4505733,-0.43830412,-0.6270775,-0.58738066,-0.57241899,-0.62872819,-0.60808465,-0.70242066,-0.6832446,-0.6287459,-0.63955687,-0.58028937,-0.53848663,-0.54705735,-0.48977921,-0.42421479,-0.31753694,-0.2605698,-0.22962497,-0.13876142,-0.14878375,-0.07198036599999999,0.014442551000000001,-0.067595052,-0.038799647,-0.012614995,-0.014204293,-0.012386862,0.11113395,0.10749991,0.050455220999999995,-0.0054513067,0.042688839000000006,0.030612777999999997,0.083416666,0.10369881,0.11027974,0.0865962,0.06805174900000001,0.13365473,0.20190416,0.23635523,0.24738659,0.31275705,0.32779501,0.31626918,0.35556187,0.49149314,0.5374918,0.5488863,0.60963202,0.52354616,0.54615532,0.55917595,0.50179688,0.52574334,0.57048915,0.54196133,0.56767609,0.56976043,0.50245464,0.51430731,0.51038205,0.48236989,0.42028419,0.42025352,0.50424716,0.66622454,0.7812711,0.88512691,1.0222396,1.1055036,1.2362178,1.3184394,1.4808934,1.6605902,1.565288,1.6031342,1.4333106000000002,1.3052402,1.2199547,1.0010107,0.87672319,0.62768872,0.27554067,0.1877203,0.085409556,0.1222222,0.10150591,0.0042879137,0.063848738,0.074332318,0.037222213,0.020529935,0.042827711,0.052891568,0.029199832000000002,0.029096167000000003,0.067125448,0.088549164,0.23316722,0.37636647,0.81561248,1.0761307,0.94161477,1.0675333,1.0650751,0.8820452,0.88345266,0.7952752,0.87075967,0.94273991,0.35873222,-1.0580473
51,1.0,1.8220915000000002,0.41431889,-1.4402347,-2.6185489,-3.9225672999999994,-3.7832244,-2.7079987,-1.8551081999999999,-1.7752998,-0.91354509,-0.17518641,-0.27783186,-0.182055,-0.15315835,-0.25234714,-0.2037273,-0.22849352,-0.22616655,-0.35239271,-0.30498562,-0.42395803,-0.47204109,-0.52146914,-0.49859221,-0.4765966,-0.58193346,-0.66905216,-0.65973059,-0.71456197,-0.78103406,-0.91072541,-0.96548121,-1.0537213,-1.1123895000000001,-1.1765851,-1.1528135,-1.1641609,-1.108091,-1.1444839,-1.1135653,-1.1454212,-0.9552739,-0.96520569,-0.88154486,-0.7650015,-0.65484469,-0.49934698,-0.45997763,-0.31291843,-0.26812778,-0.13126339,-0.27098122,-0.05773232,0.022480039,-0.036034908,-0.0018902214000000002,-0.055004958,0.029782991,-0.022568479,0.13170686,0.026626228,0.15341835,0.12689894,0.14532169,0.1580413,0.25427215,0.24267503,0.19508559,0.37689501,0.38664039,0.43942687,0.49612034,0.47993907,0.46162086,0.46535891,0.43711787,0.4313821,0.51182644,0.55056062,0.4201175,0.3858956,0.38450803,0.49883498,0.529712,0.44891928,0.39211875,0.45970586,0.35887999,0.24418203,0.31855673,0.28700662,0.28905336,0.26190733,0.28874881,0.28597991,0.21299678,0.28057157,0.36010994,0.22887003,0.46209527,0.64072251,0.97881136,1.1012465,1.3073963,1.3221418,1.7503101000000003,2.0972297,2.0663249,2.0742566000000005,1.8210143,1.6835848000000002,1.470883,1.2593508,0.71874234,0.20670196,-0.045793957999999996,-0.23725089,-0.40485324,-0.39565624,-0.34149698,-0.39829702,-0.39040405,-0.34849862,-0.37324932,-0.27149198,-0.12214635,-0.15663848,-0.10223312,-0.12967314,-0.18316736,-0.070309216,0.46497488,1.0497934,0.95407574,1.6350329,2.0680291,2.2869992000000003,1.5447303,1.0221027,1.8453224
52,1.0,-1.1375655,-2.8296175,-3.6993818,-4.18251,-3.9518425,-3.4600817999999998,-2.4981382,-1.6487298,-1.4308586,-0.99026326,-0.54871128,-0.49948122,-0.40897573,-0.39117676,-0.43933993,-0.46832869,-0.43895568,-0.54082251,-0.46600715,-0.43581686,-0.41064455,-0.4318598,-0.54789507,-0.5135295,-0.54840866,-0.61493322,-0.59883841,-0.60159995,-0.59156184,-0.69952864,-0.68996391,-0.76463649,-0.76125223,-0.70372524,-0.73169363,-0.80645625,-0.79071685,-0.79460399,-0.67294305,-0.5778588,-0.63093999,-0.51703797,-0.51443605,-0.39212663,-0.2451469,-0.17690777,-0.018984191,0.01243858,0.0050632076,0.010820601000000001,0.08546639800000001,0.061332465999999995,0.012663698000000001,-0.0006203191000000001,0.09181166,0.061621194000000004,0.056851007,0.079394174,0.10041705,0.14146524,0.13268697,0.1177393,0.14184007,0.20406274,0.16564438,0.23635136,0.23930772,0.30683605,0.26696634,0.32958656,0.42376441,0.33581211,0.3965991,0.46204987,0.55772314,0.56851733,0.58028191,0.58892507,0.61798762,0.58935787,0.56717404,0.55409253,0.62436048,0.6300583,0.51459802,0.57195214,0.5375358,0.4310201,0.457794,0.44723741,0.49216169,0.47495831,0.60583942,0.63502435,0.68989971,0.9869484,1.0694622999999999,1.1555073999999999,1.3361221,1.4044953000000002,1.6527273,1.8019479,1.7900398000000002,1.7099204,1.6371013,1.5425806,1.4451040000000002,1.1930188,1.0850090000000001,0.77052928,0.40334096,0.20205212,0.011084923,0.058437812,-0.045044469000000004,-0.0042957313,-0.053470348,-0.065976249,-0.054550457000000004,-0.09670183800000001,-0.08205714,-0.053642232000000005,-0.066214957,-0.06943369099999999,-0.11799227,-0.06272961099999999,-0.050038781,0.017330052,0.38939571,0.71001139,0.85693818,0.83843817,0.90434271,0.9611745,1.1005936,0.85652336,0.94570758,1.1444979,0.98724821,-0.54512008
53,1.0,-0.2845389,-2.56636,-3.8859204,-4.7138026,-4.5507642,-3.4143519999999996,-2.0074287,-1.5956318,-1.2024522,-0.3626928,-0.22925831,-0.21309354,-0.26495736,-0.1838252,-0.17009183,-0.16543134,-0.22499257,-0.17132067,-0.27745781,-0.16474985,-0.28495884,-0.2660943,-0.28776845,-0.31475358,-0.37691679,-0.44059957,-0.48118124,-0.56648367,-0.45259033,-0.52994347,-0.57558351,-0.64390081,-0.71366544,-0.64110192,-0.61982667,-0.54575661,-0.68192667,-0.69274365,-0.66547566,-0.7078539,-0.5618477,-0.43402873,-0.50432604,-0.38930737,-0.27588748,-0.24552147,-0.23455214,-0.10519527,-0.05371967,0.12579282,0.18786646,0.16788292,0.06938545,0.11830259,0.10653489,0.13999411,0.1559557,0.16030737,0.23627952,0.27852225,0.32878766,0.22726695,0.17967799,0.21901297,0.29109262,0.32464574,0.33275123,0.42787972,0.37960733,0.35725319,0.52799061,0.51915066,0.54150243,0.6076411,0.63080838,0.59538054,0.66884519,0.70932999,0.60680241,0.63995059,0.54583946,0.61978635,0.5791854,0.59129677,0.583402,0.43438943,0.38431497,0.40970639,0.42830027,0.41860852,0.3749557,0.4018288,0.36755711,0.41585409,0.30634522,0.3435921,0.34868464,0.55868376,0.58296606,0.7831223,0.9636785,1.0863016,1.4080944,1.7436029,1.9726693,2.0443917000000003,1.9788287,1.7845451,1.5760266,1.3354834999999998,0.97622011,0.59076092,0.13005448,-0.14872478,-0.26857876,-0.2382055,-0.30282287,-0.3304055,-0.27878601,-0.29410535,-0.30487818,-0.17247505,-0.23313659,-0.33190954,-0.22243444,-0.20160949,-0.15397804,-0.15184661,0.11384378,0.49705074,1.2166197,1.3620523000000002,1.1461111000000002,1.0319236999999999,0.68708181,0.15011876,-0.20307617,0.19633799,0.64005013,-1.1928627
54,1.0,1.2058062,-0.08506445800000001,-1.8997083,-3.2179461,-4.0985883,-4.0188911,-2.8214546,-1.9853713,-1.633507,-0.73292101,-0.20011702,-0.28925444,-0.25063988,-0.26221205,-0.32113089,-0.2370161,-0.33244225,-0.29813022,-0.26149741,-0.2823794,-0.37372132,-0.54603743,-0.4965999,-0.43387499,-0.50867466,-0.51195367,-0.61128867,-0.52270145,-0.77575347,-0.79073199,-0.8857519,-0.92672581,-0.92280353,-1.0833612,-1.1689136,-1.2140833999999998,-1.3010176000000002,-1.2207039,-1.2117135,-1.126951,-1.2465653,-1.0456747,-0.97948802,-0.78513074,-0.66740773,-0.51683052,-0.41603656,-0.43019498,0.018286821,-0.16919913,-0.055875844,-0.1147198,-0.033100519,0.03395934,-0.035081807,-0.03276391,-6.1595709e-05,0.12991117,0.11694361,0.18909197,0.15995533,0.23134262,0.16640146,0.21087438,0.31146472,0.49184714,0.46890886,0.48627041,0.61671562,0.60637517,0.72881667,0.76449755,0.74791359,0.66939064,0.73484503,0.69625369,0.70561987,0.605044,0.84044706,0.70521955,0.62584358,0.7030657,0.47567556,0.53390169,0.43703751,0.44274208,0.46907961,0.53446452,0.33154154,0.41338373,0.42842524,0.32060561,0.33205325,0.27222333,0.37778685,0.40946905,0.22115991,0.23441193,0.23905188,0.3489912,0.40821869,0.70595417,1.0395644,1.121404,1.2114949,1.4926805,1.8161682000000001,2.1014132,2.0464648999999997,2.0266119,1.7580186999999998,1.6035215,1.3304004999999999,1.1275301000000002,0.65733624,0.15380395,-0.24444464,-0.41156113,-0.35057351,-0.33064433,-0.33515945,-0.348782,-0.21915176,-0.32040211,-0.20201589,-0.23869062,-0.28544312,-0.24636552,-0.13317748,-0.21242049,0.060045506,0.83242055,1.406726,1.1674732,1.2762455,1.3340187,1.2166881999999999,0.5592314,0.10851654,0.91353055
55,1.0,-1.5358419,-3.0086447,-3.5876898999999995,-4.3052777,-4.2165415,-3.6361915999999996,-2.379914,-1.566276,-1.516406,-0.83856508,-0.40179849,-0.37097589,-0.17180447,-0.21806725,-0.1670116,-0.19965632,-0.18330083,-0.30439982,-0.29097689,-0.1849952,-0.29352338,-0.29429033,-0.25198509,-0.24314754,-0.27641962,-0.20388638,-0.30902873,-0.35036795,-0.24129251,-0.28823079,-0.20627797,-0.27196118,-0.24797246,-0.18689316,-0.18288249,-0.11411781,-0.10582175,-0.10890915,-0.00061497638,-0.12624701,-0.041925526,-0.050347247000000005,-0.07660344200000001,0.045438321,0.18197814,0.22642345,0.07148546,0.09451913599999999,0.097125455,0.061440722999999996,0.1348883,0.14413556,0.11015081,0.043620609000000005,0.051160615,-0.10145015,-0.073519675,-0.024526747999999998,-0.061864619,-0.030024329,0.043149198,-0.048533652999999996,-0.030187897999999998,-0.12183458,-0.13021229,-0.071391947,-0.010528606000000001,0.040706617,0.011227272,-0.027052866000000002,0.08410061,0.20502606,0.17349523,0.25928536,0.27482546,0.37578085,0.4036469,0.31834719,0.45626857,0.37436954,0.31861871,0.34078444,0.35006511,0.45473546,0.45733099,0.27159237,0.22936415,0.45579006,0.36695524,0.30237728,0.40372016,0.36976237,0.36102967,0.31707017,0.51347764,0.67142219,0.92187061,0.90738302,1.0582451000000002,1.4202892,1.7489668,1.9454208,1.9428666,1.8867078999999998,1.7714481,1.6333215,1.5404293,1.1808376,1.0710919,0.85485969,0.4701139,0.0044300669,-0.086120974,-0.06334892,-0.093972012,-0.24528334,-0.22416315,-0.16751301,-0.24647057,-0.15289427,-0.18139042,-0.30479033,-0.18948547,-0.18280855,-0.11658759,-0.17004684,-0.19295235,0.059414863,0.59607137,1.3257673,1.8161744,1.67373,1.7299076,1.4307981,0.87246524,0.021157049,-0.93431948,-0.92335403,-0.38206138,-1.2046879
56,1.0,0.063688311,-2.0275126,-3.13788,-4.2747943,-4.576143599999999,-3.6396252999999996,-2.3289285,-1.6078236000000001,-1.3080829999999999,-0.54727472,-0.092448486,-0.13171612,-0.18816465,-0.17842876,-0.17975798,-0.18248996,-0.044839396,-0.18681338,-0.15735202,-0.22119326,-0.30674364,-0.32408024,-0.32078705,-0.24923722,-0.27885734,-0.36324591,-0.29218417,-0.43208614,-0.44868547,-0.50537508,-0.45760008,-0.63862531,-0.64931404,-0.68312372,-0.74945169,-0.72960709,-0.83413085,-0.81622331,-0.73318473,-0.69148372,-0.85859819,-0.71587543,-0.60921916,-0.5941811,-0.56210156,-0.47187431,-0.36618545,-0.27638423,-0.17235776,-0.083425385,-0.005761455600000001,-0.01710647,-0.02797933,0.08918236199999999,0.162065,0.098762316,0.071185094,0.1533207,0.14429173,0.15741806,0.22997846,0.27699761,0.23633459,0.36709787,0.26955695,0.29315683,0.2878007,0.3813347,0.39416479,0.4402858,0.53860553,0.60472016,0.66695042,0.63911047,0.625798,0.71515348,0.78001533,0.72916012,0.76360232,0.71646403,0.86499558,0.65750963,0.67063397,0.63509888,0.64004052,0.57439022,0.63169464,0.5065744,0.56142094,0.57536299,0.47306012,0.46029913,0.35838764,0.35520761,0.34647731,0.38426159,0.50797462,0.52079509,0.66635688,0.82629246,1.0653336000000002,1.221227,1.4088007,1.898634,2.1403014,2.3908607999999996,2.2957217,1.8993490000000002,1.7398462,1.588243,1.1785011,0.7796164,0.1881327,-0.084416925,-0.24398308,-0.3262333,-0.44067029,-0.36395351,-0.37841412,-0.42790437,-0.5075008,-0.47299149,-0.36470239,-0.49474254,-0.36961665,-0.33616709,-0.36597508,-0.3352861,-0.23182181,0.021389347000000003,0.81828403,1.2258197,0.78009916,0.48345176,0.25025112,-0.032643946,-0.17513687,-0.098724826,0.58720111,0.25313151
57,1.0,-2.2719235,-2.1856732999999995,-1.7571383999999999,-3.2943411,-4.250811799999999,-4.3599947,-4.119460500000001,-3.6524567,-3.0494596,-2.1979111000000002,-1.6747425999999999,-1.2679196000000001,-0.7141723,-0.26969664,0.031937851,0.1471931,0.21218638,0.26322801,0.28227129,0.36058078,0.44123406,0.43530401,0.52089805,0.53651724,0.60947695,0.62943588,0.65686809,0.7192854,0.66639965,0.66328078,0.76841319,0.6907119,0.72785086,0.70818192,0.72919322,0.67724227,0.68344338,0.59091478,0.58539036,0.49127537,0.44151092,0.35465644,0.32235021,0.19029651,0.10003079,0.043810283,-0.010594967,0.0005146834099999999,0.028866781,-0.028674582,0.0083425699,-0.059729961,9.671986800000001e-05,0.068117862,0.10631838,0.06375508099999999,0.16313057,0.14150773,0.20080325,0.20418431,0.15607255,0.22385603,0.23690058,0.22080101,0.23400457,0.16775749,0.10067066,0.14378975,0.095681827,0.022543123999999998,0.02353909,0.050224464,0.053487824,0.057078721,0.021173954,0.0014649239000000002,0.021893884,0.042788334000000004,0.0031633054999999997,0.014965155,0.016971886999999998,0.05204662400000001,0.049980415,0.033332606,0.048756519000000005,0.062117704,0.048021799000000004,0.061811657,-0.00097861921,0.11776977,0.12779897,0.051196991,0.016551449,0.08414763300000001,0.088612525,0.09699522099999999,0.075183526,0.091280689,0.10820697,0.013367435,0.076373771,0.10524582,0.09999879800000001,0.2348301,0.32744129,0.46379897,0.57831731,0.7394289,0.9688695,1.1668067,1.4310597,1.4119237,1.3717774999999999,1.1723697,1.0384648,0.75373588,0.51023954,0.21507928,-0.08494365699999999,-0.29506167,-0.28532899,-0.2879601,-0.30465606,-0.3010489,-0.32994074,-0.29501984,-0.21468327,-0.2515026,-0.2302902,-0.22551792,-0.19146194,-0.029380425,0.457565,0.77508889,0.79450423,1.0132072,0.87331361,0.61312977,0.78810534,1.1087855
58,1.0,0.31254739,-2.1781081,-3.548896,-4.0045316,-3.8968257000000004,-3.5853428999999997,-2.5112375,-1.5128249,-1.528845,-0.90318556,-0.39623666,-0.35313194,-0.29290317,-0.33715282,-0.33533294,-0.35021399,-0.33021779,-0.39095254,-0.34904702,-0.43044392,-0.391612,-0.40188851,-0.45777234,-0.43269947,-0.50081075,-0.63604002,-0.56500853,-0.61566012,-0.67212508,-0.66418146,-0.76271661,-0.72439231,-0.82977402,-0.90868548,-0.97909505,-0.95265256,-0.87084238,-0.827589,-0.75820767,-0.769216,-0.69006804,-0.58314001,-0.55813944,-0.50620069,-0.37605328,-0.27665294,-0.14994779,-0.13370109,-0.12435012,-0.0067863285,-0.07328539,-0.06299982700000001,0.0057478215,0.055443469,0.069259,0.09523956300000001,0.022439422,0.004833463400000001,0.17720529,0.2215114,0.14646795,0.12735195,0.12884738,0.15876785,0.16349689,0.23245085,0.38109702,0.35133745,0.4273639,0.47197152,0.54132986,0.48469131,0.49978981,0.64634736,0.54296926,0.60492752,0.52970482,0.56763691,0.57220514,0.53387715,0.40232976,0.4804157,0.54691558,0.50364868,0.35130261,0.44645141,0.42629271,0.37725956,0.35099718,0.34728743,0.29333137,0.31853627,0.34705594,0.39462561,0.42240333,0.44999346,0.71117747,0.92265946,1.0450124,1.1688802,1.3655451,1.6407546999999998,1.821261,1.9226703,1.8289620999999998,1.7290902,1.5515994,1.3710883,1.0747103999999998,0.88732386,0.58334604,0.21094633,-0.11322333,-0.1877873,-0.25919052,-0.24899826,-0.19792481,-0.25634545,-0.28077144,-0.22014631,-0.23922466,-0.22198841,-0.22717253,-0.32128488,-0.20460084,-0.19720303,-0.1764942,-0.099192205,0.0036909836,0.34926097,0.81625519,0.89847371,0.99255371,1.2852092,1.3086113000000001,1.2955051000000002,1.258101,1.5116921,2.2484262999999998,0.6107601
59,1.0,-4.386722,-3.983415,-1.6820461,-1.6608938999999998,-1.3649911,-0.76408356,-0.18161072,-0.17792925,-0.42996722,-0.24559092,-0.33797371,-0.3332679,-0.23134573,-0.31741937,-0.47006367,-0.49510965,-0.2190593,-0.10730559,-0.23146874,-0.34923004,-0.37369914,-0.32222332,-0.35634776,-0.38504019,-0.59840678,-0.52346402,-0.39234357,-0.44928383,-0.42965757,-0.65823214,-0.85114391,-0.87948397,-0.97508369,-0.91468762,-0.74389126,-0.60410387,-0.6862237,-0.54510928,-0.45875897,-0.40707879,-0.34578496,-0.27456466,-0.18635923,-0.20415141,-0.26989381,-0.24400924,-0.35779652,-0.24722728,-0.036554293,-0.15469275,-0.2778865,-0.4525105,-0.4997684,-0.32186709,-0.42435502,-0.40512486,-0.32951355,-0.25111053,-0.32310682,-0.38730698,-0.22738968,-0.0087677528,-0.006647548499999999,-0.14036859,-0.20617769,-0.32178539,-0.15455216,-0.016326445,-0.035886983,-0.013768516000000001,-0.12096943,-0.06960058400000001,-0.22289128,0.1817772,0.52203379,0.63452235,0.47088512,0.19635071,0.28991384,0.41012373,0.45909837,0.38537304,0.2714771,0.47744502,0.47096037,0.54045819,0.57704326,0.35808542,0.33518206,0.41869051,0.42915106,0.46199726,0.73046406,1.0049442,1.2030216999999999,1.5760198,1.7971698,2.0342252,2.3928849,2.8800888,2.942679,2.8367674,2.5526391,2.3623416,2.1135097000000003,1.7705427,1.4847841999999998,1.1306242,0.51057493,0.14598547,-0.070457563,-0.3168988,-0.28901425,-0.20400217,-0.12380791,-0.18383578,-0.30648085,-0.29875671,-0.17747744,-0.12495569,-0.3206178,-0.28305608,-0.34125702,-0.2475317,-0.22217484,-0.12962477,-0.054091485999999994,0.45367497,1.3546704999999999,1.6663755,1.4668603,1.1488489,0.34288961,-0.27491332,-0.59820616,-1.1023781000000001,-1.0119079,-0.61549256,-0.14497064,-1.2887722
60,1.0,-0.35120982,-1.6079892,-2.1061403999999997,-2.9980556000000003,-3.3317623999999997,-3.0708352999999997,-2.2534287,-1.7162330000000001,-1.5515537,-1.2109727,-0.86171212,-0.91189051,-0.87764822,-0.87832388,-0.84325229,-0.79434609,-0.79020025,-0.80108814,-0.795148,-0.7827623,-0.81046953,-0.84759117,-0.82859589,-0.80790871,-0.89810957,-0.81780306,-0.88436788,-0.90338923,-0.91103374,-0.9671696,-0.9302183,-0.89656398,-0.99954689,-1.00709,-1.0229495000000002,-0.98731828,-1.0448045,-1.0016207000000001,-0.89023978,-0.8995991,-0.86822223,-0.81878213,-0.76863854,-0.70748033,-0.62471808,-0.55860953,-0.56238967,-0.46724834,-0.4185906,-0.43950276,-0.38928779,-0.33388425,-0.29390323,-0.33536055,-0.30280011,-0.25704849,-0.25938696,-0.25520405,-0.22017294,-0.2008185,-0.16322118,-0.15506219,-0.12725362,-0.07768701900000001,-0.065541774,-0.025351225,0.026772219,0.048087526,0.069156259,0.12554222,0.18914207,0.22086068,0.2674334,0.30001906,0.35681509,0.36277989,0.37132075,0.40493311,0.35787732,0.37778726,0.42388061,0.42293138,0.44202476,0.41696526,0.41747254,0.38470023,0.36838862,0.43342073,0.43512262,0.43004096,0.36363895,0.44122032,0.45871497,0.4401192,0.50055266,0.54943573,0.64975469,0.76780263,0.84139608,0.97141406,1.0255458,1.1653984,1.3345746,1.3996727,1.3862303,1.4181621000000002,1.3357981,1.238051,1.175699,1.0588753999999998,0.94951521,0.78825106,0.64264593,0.58948996,0.59418757,0.5723513,0.58928555,0.62980751,0.65738086,0.64469764,0.68972442,0.68573879,0.6689992,0.72585619,0.71618202,0.78835958,0.79855955,0.88574984,1.1545374,1.5638794,1.8026341000000001,1.8903140999999999,2.1675578,2.1719553,1.8491629,1.3727681,1.2620937,1.3248065,1.0128701999999998,0.22221537
61,1.0,-0.82895519,-3.3291169000000003,-4.550137599999999,-4.5726484,-4.0361007,-2.9649402,-1.7246218999999998,-1.4749450000000002,-1.1835143999999997,-0.35961009,-0.19080079,-0.25736067,-0.31505585,-0.30768192,-0.24072038,-0.26431307,-0.21312904,-0.2278177,-0.1948346,-0.18563359,-0.33183028,-0.34663131,-0.29625556,-0.28846285,-0.36910826,-0.32497523,-0.31150553,-0.37417222,-0.4306699,-0.41844912,-0.38207481,-0.51025381,-0.5478861,-0.54064159,-0.59059772,-0.6038197,-0.58589505,-0.5791163,-0.44797049,-0.46054018,-0.44961851,-0.40056143,-0.28484342,-0.26990002,-0.23959049,-0.1771072,0.00020835626,0.026820156,0.0073988814000000005,0.16810368,0.10982397,0.10078526,0.10248766,0.13270226,0.22306284,0.11436372,0.083711591,0.21141629,0.17956438,0.2199089,0.14952044,0.25160816,0.27313783,0.18419433,0.21022999,0.34438736,0.38809856,0.3878581,0.47343211,0.57025206,0.53267764,0.55549026,0.60140904,0.65154478,0.6863974,0.67902498,0.6640679,0.6076639,0.62919207,0.63643016,0.57139265,0.50578366,0.57767391,0.53310793,0.44798487,0.48161042,0.51091513,0.50065276,0.46053404,0.47282714,0.39855323,0.33895326,0.46590275,0.46861545,0.56243702,0.73431754,0.847294,0.94344608,1.2201594,1.3748188000000001,1.5566871,1.8241506999999997,1.8783229,1.8208076000000002,1.8516946,1.7351888999999998,1.5330957,1.2977689,0.98482119,0.60056072,0.30130437,-0.078168193,-0.43132032,-0.35404385,-0.48150488,-0.38105134,-0.47466269,-0.57173384,-0.54499513,-0.61180456,-0.54352607,-0.53417499,-0.52767507,-0.53477718,-0.55793567,-0.48255697,-0.43165257,-0.27175931,-0.10210301,0.54632936,0.87098781,0.69003545,0.57220181,0.61454319,0.43017327,0.23882719,0.36876217,0.88220397,1.5044089,0.22303012
62,1.0,-1.2330475,-3.7080879999999996,-4.6494026,-5.0212755,-3.7855008999999997,-2.4900586,-1.7381400000000002,-1.522781,-0.69789748,-0.33486422,-0.40031684,-0.38659423,-0.4442523,-0.26961545,-0.37109497,-0.38747995,-0.31884207,-0.3461025,-0.39970143,-0.42160553,-0.5057318,-0.42254676,-0.47409338,-0.52099905,-0.5240332,-0.58660527,-0.55467863,-0.62789248,-0.66910986,-0.70211616,-0.73873531,-0.73548662,-0.77643575,-0.76183219,-0.74278399,-0.74784767,-0.6912977,-0.5723739,-0.4616948,-0.43073053,-0.32003736,-0.25865638,-0.08560226900000001,-0.09099519800000001,0.043798005,0.091555712,0.063591602,0.146404,0.10262296,0.071192937,0.048336341,0.048641843,0.11889142,0.10751876,0.085780731,0.11188179,0.11141281,0.12570772,0.10904383,0.09532401,0.2288381,0.21801363,0.27382164,0.32502953,0.38480085,0.45378532,0.46900388,0.60970633,0.66144673,0.74462921,0.63112957,0.74117549,0.63480643,0.61440437,0.66862051,0.56846533,0.61806236,0.57743575,0.59754201,0.49247727,0.54261721,0.59733658,0.55754625,0.54579241,0.48512675,0.38528054,0.43189936,0.4285928,0.36806442,0.43259293,0.33384914,0.32224162,0.31372051,0.39046311,0.3306255,0.29702022,0.3660701,0.37732529,0.36521458,0.40113621,0.40562414,0.61500454,0.6742136,0.79957265,0.97210343,1.0808346000000002,1.3889912,1.3003445,0.8689856,0.52721793,0.60349707,0.57121291,0.56566512,0.58305767,0.36356223,0.021949043999999997,-0.14451644,-0.15494731,-0.17711278,-0.09333589099999999,-0.14026025,-0.14094984,-0.09976329099999999,-0.08794924900000001,-0.09166425,-0.091838184,-0.053146369000000006,-0.11694248,-0.035878446,0.030080886,0.39079,1.3111993,1.8370463,1.8018771,2.2019652,2.2564669,1.5395929,0.40907262,0.3401057,-0.37016525
63,1.0,-1.5633242,-3.6892169000000004,-4.2566269,-4.2292308,-2.9713107999999995,-2.1679542,-1.6477773,-1.0756339,-0.47477875,-0.33369768,-0.28300926,-0.38249615,-0.38426123,-0.37611371,-0.31183518,-0.46362617,-0.37650204,-0.36670223,-0.45390902,-0.34543834,-0.37251827,-0.53227126,-0.49091402,-0.55339152,-0.54727288,-0.6752971,-0.62437392,-0.62661832,-0.75550119,-0.8905714,-0.79896476,-0.88634022,-0.84256918,-0.85569315,-1.0268084000000002,-0.96601613,-0.94595866,-0.97912468,-0.97020153,-0.99047333,-0.690485,-0.62299745,-0.56875265,-0.46681713,-0.52236964,-0.35508384,-0.38191943,-0.26995768,-0.13113605,-0.052378756,-0.09828234400000001,-0.08577164300000001,-0.122742,-0.13218183,-0.06684027099999999,0.030829119,0.10326848,-0.0018196345,0.025797901,0.040112606,0.053797553,0.075113674,0.042645302,0.11869218,0.10230346,0.14196481,0.22285488,0.19801615,0.29326524,0.34561013,0.37821929,0.38662355,0.44267161,0.43267943,0.54119163,0.51614019,0.53614756,0.52381323,0.47858093,0.43501573,0.47417849,0.45515831,0.46091297,0.4093893,0.40933016,0.3946412,0.43689843,0.41464244,0.32253727,0.24043704,0.25228746,0.34924381,0.27549503,0.35045092,0.24917335,0.32042701,0.47613178,0.46071243,0.6197577,0.81725313,1.0091868,1.1171861,1.4446485,1.6243276000000002,1.8552804,1.9697273999999998,1.9824058,1.8510226000000003,1.5437968999999998,1.4687459999999999,1.1788113000000002,0.85645234,0.45879929,0.079570324,0.0089507191,-0.050289849000000005,-0.0098820268,-0.069199419,0.073642761,0.037703679,-0.059067148,0.061172659000000004,-0.0062867703,0.090847309,0.10937051,0.14627083,0.13322766,0.20130825,0.32381061,0.75553101,1.7737911,1.9346401000000002,1.7873830000000002,1.8498988999999997,1.3835605,0.61451522,0.26083467,0.52326609,1.1828941000000002,-0.098408706
64,1.0,-1.0711514,-2.8239842,-3.6656014999999997,-3.9540655,-3.4470766000000004,-2.7486101,-1.9814433999999999,-1.7423842,-1.5397281999999999,-0.99236038,-0.77715237,-0.82449206,-0.80004739,-0.80728283,-0.78481451,-0.78226198,-0.73341668,-0.77222518,-0.68697081,-0.71852118,-0.73112529,-0.72862603,-0.73701912,-0.70163775,-0.80086419,-0.82270549,-0.76550392,-0.82392434,-0.86047649,-0.86050038,-0.87095272,-0.85577383,-0.87223176,-0.8328513,-0.82197251,-0.8482234,-0.81661233,-0.7694861,-0.68703195,-0.72438003,-0.65061638,-0.55779274,-0.52506698,-0.38808266,-0.34174806,-0.32425371,-0.2096604,-0.19843249,-0.15721783,-0.14797537,-0.10887972,-0.053248004,-0.14951982,-0.05412054400000001,-0.060843315,-0.066760008,-0.040495862,-0.078243631,0.044290052999999996,0.081946659,0.014708773999999999,0.02091725,0.040910243,0.083920173,0.16555187,0.15726178,0.20830994,0.25513835,0.30660582,0.32664318,0.34683656,0.38646662,0.46722435,0.50612481,0.5621298,0.54494111,0.58890509,0.54424503,0.55911933,0.56602033,0.53402802,0.55527677,0.52478252,0.53905608,0.48877188,0.49794319,0.5,0.47226653,0.53287219,0.48256164,0.48943773,0.48618526,0.47769114,0.52205741,0.51839323,0.60686109,0.69899147,0.87002546,0.93978846,1.0642790000000002,1.2191993,1.3583899,1.5652291999999999,1.6313084999999998,1.5160639,1.5774756,1.4137971,1.2616341999999998,1.14172,0.96757968,0.80692046,0.6123879,0.38156601,0.2358914,0.23436625,0.2869333,0.22421065,0.23948269,0.21913214,0.2553869,0.24042311,0.18411041,0.20156685,0.21034441,0.22426714,0.25909002,0.29228925,0.35612077,0.48410845,0.77542888,1.2600508,1.4336943000000002,1.5320605,1.7886501,1.8500128,1.6214412,1.1678775,0.81833138,0.95407829,0.31633944
65,1.0,-0.092921894,-1.5184646000000002,-2.308741,-3.4684036,-3.9311906000000003,-3.2966580000000003,-2.0613956,-1.4224113,-1.1381249,-0.2305437,0.1371913,-0.0056560361,0.00066107559,0.0077755195,-0.057927092,-0.06556307,0.035824004,0.0008511222400000001,0.093282281,0.07961669099999999,-0.045406815,-0.068669382,-0.036834532999999996,0.08036904,0.17397142,0.16844707,0.078927352,0.24751809,0.2615558,0.089415572,0.095119704,0.047848983,0.16264813,0.27379463,0.15236663,0.22680603,0.32153534,0.24564703,0.28740031,0.2535393,0.31665391,0.32715929,0.25839658,0.41062558,0.52454661,0.56696522,0.53658005,0.59471203,0.65789278,0.58792434,0.53637601,0.5692103,0.63192206,0.46468632,0.47307402,0.56848129,0.50129923,0.52667766,0.47395212,0.45357748,0.38296514,0.39993036,0.47814996,0.51276228,0.50149519,0.67069614,0.76763341,0.5088723,0.528805,0.63940324,0.70069548,0.71685669,0.68917757,0.78514413,0.81122353,0.90720433,0.81643074,0.78422124,0.88991018,0.93423407,0.89679736,0.6946145,0.7206499,0.64671702,0.69625929,0.74030425,0.659576,0.47594486,0.34971335,0.37159888,0.34185645,0.31321417,0.31185691,0.20088364,0.26371725,0.38550851,0.45201808,0.47623716,0.62488015,0.79825072,1.1421441,1.4768448,1.6834038,1.8619651999999998,1.7958292000000002,1.6629628,1.2412285,1.1139624,0.84184857,0.50089508,0.18790844,-0.39675448,-0.7948597,-1.0221283,-1.0669413,-1.0872426000000002,-1.1992777000000001,-1.1968898000000001,-1.1468278,-1.2215717,-1.138946,-0.92645811,-0.93271162,-1.0388055,-0.97290853,-1.0614622999999999,-1.2091851999999998,-1.2672951000000001,-1.1096747,-0.60334738,0.35761537,0.4289727,-0.25415282,-0.83095782,-1.4795922,-1.8374168000000002,-2.2754256,-2.4004342,-1.7108599999999998,-1.7137761000000002
66,1.0,1.1844496,-0.46798226,-2.0464219,-3.5904519,-4.166564299999999,-3.577893,-2.5850417,-1.9129851000000002,-1.5955566,-0.8094793,-0.30509804,-0.47363632,-0.53231043,-0.60038025,-0.45719594,-0.46351162,-0.4660061,-0.35316162,-0.48329041,-0.60946869,-0.49716371,-0.56555734,-0.71706832,-0.67051667,-0.78121972,-0.70485644,-0.71819431,-0.78559036,-0.82839856,-0.97052867,-1.0518214,-1.0336181,-1.1628688,-1.2152284,-1.1081118,-1.2059556,-1.1487758999999997,-1.1567611999999998,-1.1199868,-1.0857525,-0.82838247,-0.72732149,-0.55993251,-0.49110049,-0.50293129,-0.38702056,-0.25562594,-0.07878107200000001,-0.2175979,-0.029350706,0.022431192000000003,0.0046150954,0.09956102300000001,0.18455227,0.194482,0.075618987,0.017434513999999998,0.11000991,0.16145209,0.33924419,0.37206342,0.4217664,0.32850721,0.24095877,0.37713124,0.46191144,0.50317503,0.49710871,0.45895329,0.64534158,0.64686723,0.5608108,0.58371202,0.6405117,0.51615319,0.59604456,0.62190438,0.54260317,0.57169653,0.56863744,0.62245971,0.54210219,0.42115868,0.53337291,0.49298279,0.53971006,0.5174998,0.58730168,0.46910113,0.41850315,0.42416757,0.32940323,0.31678183,0.44455927,0.4447837,0.52493502,0.71231958,0.81644801,0.85274247,0.9986232,1.2339323999999998,1.4064371999999998,1.4676966,1.871706,1.9149692999999999,1.8176891,1.7599377,1.5010693000000002,1.2301913999999998,1.0824863999999998,0.85250521,0.56445701,-0.03748426,-0.25429439,-0.1925138,-0.21496072,-0.2001569,-0.29565831,-0.29035449,-0.1818391,-0.23961909,-0.17244247,-0.20208236,-0.36282719,-0.27912466,-0.33288473,-0.22643613,-0.14976987,-0.0055938916,0.69837407,1.0969612,0.95487409,1.1756596000000001,1.5422006000000001,1.3246319,1.0236101,1.0405101,1.508932,1.6136245,-0.50062385
67,1.0,-0.93497664,-2.0026534,-2.6373311000000004,-3.0410395,-3.0317101,-2.6859303,-2.0299983,-1.5312785,-1.7220685000000002,-1.2626643999999998,-0.56145918,-0.66889742,-0.81431303,-0.60809162,-0.54677861,-0.74403376,-0.72556702,-0.63643271,-0.66874206,-1.0074321,-0.7651942,-0.56902989,-0.82142265,-0.7293855,-0.71825809,-0.88565036,-0.96955113,-1.0576153999999998,-0.68956541,-0.80510069,-1.0547566000000002,-1.0147346,-1.0751188999999999,-0.85152983,-0.97720059,-1.1267676000000002,-0.93712489,-0.94547397,-0.90034249,-1.0839912,-1.1843551,-0.8563151,-0.53764261,-0.24951823,-0.36147835,-0.59797077,-0.6020382,-0.51438892,-0.368641,-0.36578355,-0.29968856,-0.28584771,-0.17228511,-0.15590016,-0.42130122,-0.44247553,-0.20560995,0.09825748599999999,-0.058210214,-0.30265877,-0.25934999,-0.20269814,-0.17934903,-0.048204875999999994,0.22230361,0.26638088,0.36984214,0.17104686,-0.053139234,0.026770767999999997,0.18920548,0.23187567,0.37682499,0.34471294,0.3492297,0.39240112,0.29697976,0.22355025,0.3086862,0.2761598,0.24000727,0.28296709,0.46848411,0.35309164,0.36640751,0.51040553,0.45578033,0.52783223,0.32766148,0.35232118,0.34705994,0.18274639,0.56157689,0.78885526,0.52929849,0.74732061,0.62574368,0.69923163,1.1680003,0.8224975,1.1693799999999999,1.5791058999999998,1.5324818,1.4300608,1.3997503,1.4458533000000002,1.2595548,1.0987495,0.83702027,0.85564473,0.62461903,0.31567227,0.34344807,0.14266687,-0.015516966,0.1754692,0.49701724,0.31481263,0.40595413,0.68088848,0.78591389,0.65001062,0.3144517,0.45909732,0.47351477,0.66685911,0.40300213,0.39755408,1.09218,1.4542803,1.266102,0.98939654,1.8008965000000001,2.1314867000000004,1.9117254000000001,2.2438581,2.1474039,2.2019811000000002,1.9000304000000001,0.68016913
68,1.0,1.4957655,-0.59428146,-3.0125206,-4.2017866999999995,-5.134265599999999,-4.5651055,-2.7773967999999996,-1.85936,-1.3355663,-0.062143202,0.50380902,0.47029678,0.37379597,0.38088739,0.48639994,0.54149094,0.43532255,0.32340296,0.25159069,0.40090228,0.12482348,-0.051726,0.060404952000000005,-0.034190438999999996,-0.26830241,-0.16001106,-0.15084178,-0.16580691,-0.24501407,-0.4962306,-0.54807223,-0.53611629,-0.59133323,-0.55039461,-0.7687036,-0.65938465,-0.8058189,-0.88535957,-0.63884151,-0.66600023,-0.55440014,-0.56730358,-0.44155356,-0.45412044,-0.28654894,-0.12432662,0.034026938,0.065163913,0.15520399,0.26770416,0.17206842,0.20292703,0.17567789,0.21661528,0.23070617,0.36942921,0.296738,0.17725515,0.28699281,0.27835471,0.34558153,0.22706775,0.50243019,0.22440493,0.59102325,0.59807334,0.38312497,0.58403017,0.79939589,0.80444225,0.64681782,0.81007833,0.86703901,0.91870327,0.75143293,0.93101156,0.97779803,0.79422577,1.0243512,0.99920845,0.78510288,0.72849737,0.8605381,0.63822486,0.58008816,0.64218721,0.49700462,0.50242671,0.45246151,0.52942999,0.39273347,0.18435063,0.43233825,0.41103725,0.26687712,0.21004706,0.035316522,0.28098452,0.22995259,0.062612737,0.27709104,0.19066428,0.045927403,0.15222733,0.13240266,0.48318959,0.76063225,1.129207,1.2928647,1.2517648000000001,1.028785,0.8286999,0.58682492,0.30994205,0.67581925,0.38469926,-0.15125307,-0.66319009,-0.85193538,-0.85092324,-0.79469106,-0.76285356,-0.98518795,-0.74864474,-0.8297382,-0.93415596,-0.96976389,-0.79935044,-0.91081795,-0.83991919,-0.77048971,-0.60259236,0.50493936,0.828545,1.1382576000000002,1.3901712,1.2315072,1.0189097,-0.14348342,-0.12146218
69,1.0,-1.3092739,-4.045361799999999,-4.7573278,-4.6570401,-3.6344792,-2.469447,-1.6400876,-1.4089921,-0.70693724,-0.2721029,-0.37470899,-0.41018169,-0.35873889,-0.33825654,-0.28638809,-0.36152754,-0.37886865,-0.33002734,-0.30526976,-0.29376063,-0.3405633,-0.33702817,-0.37323552,-0.32065463,-0.40463115,-0.4713663,-0.41474635,-0.57494816,-0.46758883,-0.50392619,-0.55054691,-0.6121989,-0.55532579,-0.63570936,-0.569861,-0.55919135,-0.69143182,-0.53580715,-0.47043569,-0.45516348,-0.58469717,-0.45647528,-0.43030059,-0.27890418,-0.11882961,-0.045030642,0.06663511700000001,0.28731259,0.16331571,-0.027602492000000003,0.11699051,0.16934812,0.17970847,0.13770469,0.16201828,0.12293448,0.15983715,0.19355093,0.25269268,0.31324056,0.28741104,0.34664335,0.37315481,0.30618394,0.38120529,0.4609487,0.41756119,0.38278979,0.36469307,0.5151672,0.59194926,0.66970114,0.74486953,0.76710506,0.6819639,0.69685058,0.60905442,0.70521174,0.75572881,0.62239012,0.75562516,0.66460623,0.53317028,0.52519181,0.50041818,0.54362453,0.46714251,0.39981315,0.49489613,0.46330802,0.44092417,0.31015419,0.33982038,0.42652505,0.27667078,0.27946053,0.41807935,0.57524565,0.74436138,0.93788388,1.1103392,1.2238589,1.4144836,1.7265667000000002,1.8822842,1.7777822,1.7715857,1.5622685,1.3242005,1.1110513000000002,0.75207183,0.47535841,0.14336464,-0.16365122,-0.3044167,-0.16567346,-0.2953111,-0.35979754,-0.30318708,-0.23058061,-0.35291854,-0.34693018,-0.28835655,-0.37259564,-0.30431725,-0.27288453,-0.29720346,-0.29655191,-0.25407878,0.07922328,0.65183208,1.3713527,1.2570776000000001,1.2469635000000001,1.1566288999999998,0.31132551,-0.32592327,-0.38527269,0.38583454,-0.39361923
